time temp susc csusc
 0             0             0             0             0            no
 00000    39.3    -156.3   .0
 00020    42.2    -156.1   .0
 00039    44.9    -156.4   .0
 00057    47.5    -156.4   .0
 00076    50.2    -156.4   .0
 00094    53.0    -156.3   .0
 00111    55.5    -156.5   .0
 00129    58.2    -156.5   .0
 00145    60.6    -156.6   .0
 00160    62.9    -156.4   .0
 00178    65.6    -156.6   .0
 00196    68.4    -156.4   .0
 00213    71.1    -156.6   .0
 00231    73.9    -156.6   .0
 00247    76.3    -156.6   .0
 00264    79.1    -156.5   .0
 00281    81.8    -156.6   .0
 00296    84.1    -156.5   .0
 00314    87.0    -156.6   .0
 00332    89.9    -156.6   .0
 00350    92.8    -156.7   .0
 00367    95.7    -156.5   .0
 00382    98.1    -156.7   .0
 00400    101.1    -156.7   .0
 00416    103.7    -156.9   .0
 00432    106.4    -156.8   .0
 00450    109.4    -156.8   .0
 00467    112.2    -156.9   .0
 00484    115.1    -156.6   .0
 00501    118.1    -156.8   .0
 00519    121.2    -156.8   .0
 00537    124.3    -156.7   .0
 00553    127.0    -157.1   .0
 00571    130.1    -156.7   .0
 00586    132.7    -157.0   .0
 00604    135.9    -156.8   .0
 00622    139.1    -157.0   .0
 00637    141.7    -156.8   .0
 00655    144.9    -156.8   .0
 00673    148.1    -156.8   .0
 00689    150.9    -156.9   .0
 00706    154.0    -156.9   .0
 00723    156.9    -156.9   .0
 00738    159.8    -157.1   .0
 00753    162.5    -156.9   .0
 00771    165.7    -157.0   .0
 00789    169.0    -157.0   .0
 00807    172.3    -157.1   .0
 00825    175.5    -156.7   .0
 00840    178.4    -157.0   .0
 00859    181.8    -157.0   .0
 00874    184.6    -157.1   .0
 00892    188.0    -156.9   .0
 00908    190.9    -157.0   .0
 00926    194.3    -157.0   .0
 00941    197.2    -157.0   .0
 00960    200.7    -157.2   .0
 00978    204.1    -157.1   .0
 00996    207.4    -157.2   .0
 01013    210.7    -157.1   .0
 01031    214.1    -157.1   .0
 01049    217.5    -157.0   .0
 01067    221.0    -156.8   .0
 01085    224.4    -157.1   .0
 01103    227.8    -157.0   .0
 01121    231.3    -157.2   .0
 01139    234.8    -157.2   .0
 01155    237.9    -157.1   .0
 01171    241.0    -157.4   .0
 01187    244.0    -157.1   .0
 01202    247.0    -157.0   .0
 01220    250.4    -156.8   .0
 01235    253.5    -157.1   .0
 01253    256.9    -157.5   .0
 01267    259.7    -157.2   .0
 01283    262.7    -157.1   .0
 01300    266.2    -157.1   .0
 01319    269.8    -157.4   .0
 01337    273.4    -157.2   .0
 01355    276.9    -157.1   .0
 01371    280.1    -156.8   .0
 01388    283.5    -156.8   .0
 01404    286.6    -157.1   .0
 01419    289.7    -157.2   .0
 01437    293.1    -157.0   .0
 01454    296.5    -157.3   .0
 01472    300.1    -157.4   .0
 01489    303.4    -157.3   .0
 01507    307.0    -156.8   .0
 01525    310.6    -157.0   .0
 01543    314.2    -157.1   .0
 01559    317.3    -156.8   .0
 01575    320.6    -156.4   .0
 01591    323.9    -157.0   .0
 01606    326.9    -156.7   .0
 01621    329.9    -156.6   .0
 01636    332.9    -156.1   .0
 01654    336.4    -156.4   .0
 01671    339.9    -156.3   .0
 01686    342.8    -156.3   .0
 01703    346.3    -156.4   .0
 01720    349.7    -156.4   .0
 01735    352.7    -155.8   .0
 01753    356.3    -156.0   .0
 01772    360.1    -155.8   .0
 01787    363.2    -155.9   .0
 01806    366.9    -155.1   .0
 01821    370.0    -155.8   .0
 01839    373.6    -155.4   .0
 01857    377.3    -155.4   .0
 01875    380.9    -155.4   .0
 01891    383.9    -155.4   .0
 01909    387.6    -155.3   .0
 01926    391.1    -155.5   .0
 01944    394.7    -155.6   .0
 01962    398.3    -155.6   .0
 01980    402.0    -155.4   .0
 01996    405.1    -155.5   .0
 02014    408.7    -155.8   .0
 02031    412.1    -155.7   .0
 02049    415.7    -156.0   .0
 02067    419.3    -156.0   .0
 02085    422.8    -156.7   .0
 02103    426.5    -156.6   .0
 02118    429.4    -156.9   .0
 02136    432.9    -157.1   .0
 02153    436.5    -156.8   .0
 02171    439.9    -157.3   .0
 02186    443.0    -157.3   .0
 02202    446.0    -157.9   .0
 02220    449.6    -157.4   .0
 02235    452.6    -157.3   .0
 02250    455.6    -157.4   .0
 02267    459.1    -157.5   .0
 02282    462.0    -157.6   .0
 02299    465.4    -157.5   .0
 02318    468.9    -157.0   .0
 02333    471.9    -157.5   .0
 02351    475.4    -157.4   .0
 02367    478.6    -157.7   .0
 02385    482.0    -157.6   .0
 02400    484.9    -157.6   .0
 02415    488.0    -157.4   .0
 02434    491.5    -157.7   .0
 02449    494.6    -157.6   .0
 02465    497.7    -157.7   .0
 02484    501.2    -157.1   .0
 02499    504.2    -158.5   .0
 02517    507.7    -157.6   .0
 02533    510.7    -157.9   .0
 02551    514.2    -157.6   .0
 02567    517.2    -157.8   .0
 02585    520.6    -157.6   .0
 02600    523.4    -157.8   .0
 02615    526.2    -158.0   .0
 02633    529.7    -157.8   .0
 02648    532.5    -157.8   .0
 02663    535.3    -158.0   .0
 02681    538.7    -158.1   .0
 02697    541.7    -157.9   .0
 02714    544.9    -158.2   .0
 02732    548.2    -157.9   .0
 02747    551.0    -158.4   .0
 02763    554.0    -157.9   .0
 02782    557.4    -158.3   .0
 02797    560.1    -158.4   .0
 02813    563.1    -158.5   .0
 02830    566.3    -158.3   .0
 02846    569.2    -158.6   .0
 02861    571.9    -158.4   .0
 02878    575.0    -158.5   .0
 02895    577.9    -158.5   .0
 02910    580.7    -158.6   .0
 02927    583.7    -158.6   .0
 02946    587.0    -158.5   .0
 02961    589.8    -158.8   .0
 02976    592.5    -158.5   .0
 02992    595.2    -159.3   .0
 03011    598.5    -158.4   .0
 03026    601.3    -158.8   .0
 03044    604.4    -158.3   .0
 03060    607.1    -158.3   .0
 03078    610.2    -158.8   .0
 03093    612.8    -159.0   .0
 03108    615.4    -158.6   .0
 03125    618.2    -158.8   .0
 03143    621.2    -158.8   .0
 03158    623.8    -158.7   .0
 03173    626.4    -158.8   .0
 03191    629.4    -158.3   .0
 03207    632.0    -158.8   .0
 03223    634.7    -158.9   .0
 03242    637.7    -158.4   .0
 03260    640.7    -158.8   .0
 03276    643.4    -158.5   .0
 03295    646.4    -158.8   .0
 03310    648.9    -158.8   .0
 03328    651.6    -159.1   .0
 03342    654.0    -158.5   .0
 03358    656.4    -158.9   .0
 03376    659.3    -159.1   .0
 03394    662.1    -159.0   .0
 03412    664.8    -159.4   .0
 03429    667.5    -158.9   .0
 03446    670.2    -159.1   .0
 03465    673.0    -158.5   .0
 03483    675.7    -159.2   .0
 03501    678.5    -158.8   .0
 03519    681.2    -159.1   .0
 03537    683.8    -159.0   .0
 03555    686.5    -159.3   .0
 03574    689.2    -158.8   .0
 03592    691.8    -159.1   .0
 00005    692.3    -158.9    .0
 00018    693.7    -159.2    .0
 00036    695.7    -158.9    .0
 00051    697.4    -159.2    .0
 00069    699.6    -159.1    .0
 00086    701.8    -159.8    .0
 00101    703.5    -159.0    .0
 00117    701.4    -159.4    .0
 00135    699.0    -159.0    .0
 00152    696.7    -158.6    .0
 00170    694.3    -159.3    .0
 00187    691.9    -159.2    .0
 00206    689.3    -159.3    .0
 00223    686.9    -159.6    .0
 00242    684.2    -159.2    .0
 00261    681.6    -159.3    .0
 00280    678.8    -159.1    .0
 00299    676.0    -159.2    .0
 00319    673.1    -159.3    .0
 00339    670.2    -159.5    .0
 00358    667.3    -159.8    .0
 00377    664.4    -160.0    .0
 00397    661.4    -159.7    .0
 00440    654.8    -159.4    .0
 00465    651.0    -159.2    .0
 00484    648.0    -159.5    .0
 00504    644.9    -159.7    .0
 00552    637.1    -159.3    .0
 00576    633.2    -159.6    .0
 00596    630.1    -159.6    .0
 00651    620.9    -159.5    .0
 00675    617.0    -160.6    .0
 00694    613.7    -159.5    .0
 00766    601.4    -159.5    .0
 00790    597.2    -159.3    .0
 00859    585.3    -159.7    .0
 00882    581.2    -158.9    .0
 00963    566.6    -159.3    .0
 01030    554.5    -159.8    .0
 01049    550.9    -158.8    .0
 01160    530.4    -159.6    .0
 01179    526.7    -157.4    .0
 01319    500.1    -156.1    .0
 01444    476.0    -155.3    .0
 01591    447.2    -154.4    .0
 01769    411.7    -153.9    .0
 01989    368.0    -153.2    .0
 02235    319.2    -153.0    .0
 02461    274.9    -152.8    .0
 02664    236.3    -152.7    .0
 02843    203.1    -153.1    .0
 02998    175.4    -153.3    .0
 03140    151.0    -153.7    .0
 03159    147.7    -153.2    .0
 03323    120.9    -153.6    .0
 03343    117.8    -153.4    .0
 03495    94.6    -153.5    .0
 03514    91.7    -153.4    .0
 03650    72.4    -153.6    .0
 03669    69.7    -153.5    .0
 03795    53.2    -153.8    .0
 03817    50.5    -153.5    .0
 03931    36.7    -153.7    .0
