time temp susc csusc
 0             0             0             0             0            no
 00000    39.3    -157.6   .0
 00020    42.1    -157.4   .0
 00038    44.8    -157.6   .0
 00057    47.5    -157.4   .0
 00074    50.0    -157.5   .0
 00093    52.7    -157.5   .0
 00108    55.1    -157.5   .0
 00126    57.8    -157.5   .0
 00141    60.0    -157.6   .0
 00159    62.8    -157.6   .0
 00179    65.8    -157.5   .0
 00199    68.8    -157.6   .0
 00217    71.6    -157.5   .0
 00236    74.6    -157.7   .0
 00254    77.5    -157.5   .0
 00271    80.2    -157.7   .0
 00290    83.2    -157.5   .0
 00310    86.4    -157.8   .0
 00328    89.3    -157.5   .0
 00347    92.4    -157.7   .0
 00365    95.4    -157.5   .0
 00385    98.6    -157.7   .0
 00403    101.6    -157.6   .0
 00423    104.9    -157.8   .0
 00439    107.7    -157.5   .0
 00456    110.5    -157.9   .0
 00474    113.5    -157.6   .0
 00493    116.7    -158.0   .0
 00512    119.9    -157.7   .0
 00529    122.9    -157.6   .0
 00548    126.2    -157.9   .0
 00568    129.5    -157.6   .0
 00584    132.4    -157.8   .0
 00603    135.6    -157.8   .0
 00620    138.6    -157.6   .0
 00637    141.6    -157.6   .0
 00656    145.1    -157.6   .0
 00673    148.1    -157.8   .0
 00694    151.7    -157.8   .0
 00713    155.2    -157.8   .0
 00732    158.6    -157.8   .0
 00750    162.0    -157.8   .0
 00767    164.9    -157.7   .0
 00784    168.0    -157.9   .0
 00801    171.1    -158.0   .0
 00818    174.3    -157.9   .0
 00838    177.9    -157.8   .0
 00857    181.5    -157.9   .0
 00875    184.7    -157.8   .0
 00894    188.3    -157.6   .0
 00913    191.7    -157.8   .0
 00932    195.4    -157.7   .0
 00952    199.1    -157.8   .0
 00969    202.4    -157.9   .0
 00990    206.3    -157.3   .0
 01007    209.5    -158.0   .0
 01027    213.3    -157.8   .0
 01047    217.1    -158.3   .0
 01064    220.4    -157.7   .0
 01083    224.1    -157.9   .0
 01101    227.4    -157.7   .0
 01120    231.1    -157.9   .0
 01139    234.7    -157.6   .0
 01158    238.4    -157.9   .0
 01175    241.7    -157.7   .0
 01191    244.7    -158.0   .0
 01208    248.2    -157.4   .0
 01225    251.5    -158.0   .0
 01244    255.2    -157.7   .0
 01262    258.6    -158.0   .0
 01279    262.0    -157.8   .0
 01296    265.3    -158.3   .0
 01313    268.6    -157.8   .0
 01330    272.0    -157.7   .0
 01347    275.3    -157.8   .0
 01364    278.8    -158.1   .0
 01383    282.5    -158.3   .0
 01401    285.9    -158.0   .0
 01417    289.2    -157.7   .0
 01434    292.6    -157.8   .0
 01452    296.1    -158.3   .0
 01469    299.4    -157.9   .0
 01488    303.3    -158.0   .0
 01505    306.7    -158.0   .0
 01522    310.1    -157.9   .0
 01540    313.6    -157.7   .0
 01558    317.2    -157.9   .0
 01577    321.1    -158.1   .0
 01596    324.9    -158.0   .0
 01614    328.4    -158.0   .0
 01633    332.2    -158.0   .0
 01650    335.6    -157.7   .0
 01667    339.0    -157.8   .0
 01684    342.4    -158.0   .0
 01701    345.9    -157.7   .0
 01719    349.6    -157.8   .0
 01740    353.7    -157.9   .0
 01760    357.8    -158.0   .0
 01780    361.8    -157.8   .0
 01797    365.2    -158.0   .0
 01817    369.2    -157.3   .0
 01835    372.7    -157.8   .0
 01852    376.2    -157.8   .0
 01869    379.5    -158.0   .0
 01885    382.9    -157.9   .0
 01904    386.6    -157.9   .0
 01923    390.5    -157.5   .0
 01943    394.5    -157.7   .0
 01960    397.9    -157.7   .0
 01980    401.9    -157.7   .0
 02001    406.0    -157.5   .0
 02020    409.9    -157.6   .0
 02038    413.4    -157.6   .0
 02054    416.7    -157.6   .0
 02074    420.7    -157.5   .0
 02091    424.0    -157.6   .0
 02110    427.9    -157.4   .0
 02127    431.3    -156.9   .0
 02147    435.3    -157.3   .0
 02165    438.7    -157.6   .0
 02184    442.6    -157.3   .0
 02201    446.0    -157.4   .0
 02219    449.5    -157.2   .0
 02238    453.2    -157.7   .0
 02257    457.1    -157.6   .0
 02275    460.5    -157.3   .0
 02294    464.2    -157.5   .0
 02312    467.7    -157.3   .0
 02331    471.5    -157.5   .0
 02348    474.9    -157.5   .0
 02365    478.3    -157.6   .0
 02385    482.0    -157.7   .0
 02404    485.8    -157.7   .0
 02423    489.5    -157.8   .0
 02441    493.0    -158.1   .0
 02459    496.4    -157.8   .0
 02476    499.8    -158.0   .0
 02493    503.0    -157.7   .0
 02510    506.3    -158.0   .0
 02527    509.5    -158.1   .0
 02544    512.7    -158.1   .0
 02561    516.0    -158.1   .0
 02578    519.2    -158.7   .0
 02595    522.6    -158.2   .0
 02614    526.2    -158.5   .0
 02632    529.5    -158.2   .0
 02649    532.7    -158.5   .0
 02669    536.4    -158.6   .0
 02686    539.6    -158.3   .0
 02703    542.8    -158.9   .0
 02720    546.1    -158.5   .0
 02737    549.2    -159.0   .0
 02754    552.3    -158.3   .0
 02772    555.7    -158.7   .0
 02792    559.4    -158.9   .0
 02811    562.8    -158.7   .0
 02828    565.9    -158.8   .0
 02848    569.5    -158.9   .0
 02865    572.6    -158.7   .0
 02884    576.0    -159.0   .0
 02902    579.3    -158.8   .0
 02921    582.7    -159.0   .0
 02940    586.0    -159.0   .0
 02960    589.6    -159.1   .0
 02977    592.6    -159.0   .0
 02994    595.6    -159.1   .0
 03011    598.6    -158.9   .0
 03031    602.0    -158.7   .0
 03048    605.0    -158.9   .0
 03067    608.4    -158.9   .0
 03084    611.3    -158.9   .0
 03101    614.2    -159.2   .0
 03120    617.5    -159.0   .0
 03137    620.3    -159.0   .0
 03155    623.3    -159.1   .0
 03172    626.2    -159.1   .0
 03189    629.0    -159.0   .0
 03206    631.8    -159.3   .0
 03223    634.7    -159.0   .0
 03242    637.8    -159.2   .0
 03259    640.5    -159.2   .0
 03278    643.7    -159.1   .0
 03295    646.4    -159.0   .0
 03312    649.1    -159.2   .0
 03329    651.8    -159.1   .0
 03345    654.5    -159.3   .0
 03365    657.6    -159.3   .0
 03383    660.4    -158.9   .0
 03400    663.0    -159.4   .0
 03417    665.6    -159.1   .0
 03434    668.3    -159.4   .0
 03452    671.1    -159.5   .0
 03469    673.7    -159.4   .0
 03487    676.3    -159.1   .0
 03504    678.9    -159.3   .0
 03521    681.5    -159.5   .0
 03540    684.2    -159.3   .0
 03560    687.2    -159.3   .0
 03579    689.9    -159.1   .0
 03598    692.7    -159.3   .0
 00005    693.2    -159.2    .0
 00020    694.8    -159.5    .0
 00039    696.9    -159.0    .0
 00057    699.0    -159.4    .0
 00075    701.2    -159.2    .0
 00092    703.4    -159.5    .0
 00111    703.0    -159.3    .0
 00128    700.8    -159.3    .0
 00147    698.2    -159.2    .0
 00166    695.7    -158.9    .0
 00183    693.3    -159.3    .0
 00201    690.8    -159.1    .0
 00221    688.1    -159.3    .0
 00239    685.5    -159.3    .0
 00258    682.9    -159.1    .0
 00278    680.0    -159.3    .0
 00296    677.4    -159.1    .0
 00313    674.9    -159.2    .0
 00333    672.0    -159.3    .0
 00350    669.5    -159.0    .0
 00366    667.0    -159.1    .0
 00386    664.1    -159.3    .0
 00403    661.6    -159.2    .0
 00421    658.7    -159.5    .0
 00440    655.9    -159.1    .0
 00457    653.3    -159.3    .0
 00476    650.3    -159.0    .0
 00494    647.5    -159.1    .0
 00513    644.4    -159.1    .0
 00530    641.7    -159.1    .0
 00548    638.8    -158.9    .0
 00568    635.6    -158.9    .0
 00585    632.8    -158.9    .0
 00602    630.1    -158.8    .0
 00620    627.1    -159.2    .0
 00637    624.4    -158.9    .0
 00654    621.6    -158.8    .0
 00671    618.7    -159.2    .0
 00689    615.7    -158.8    .0
 00706    612.8    -158.9    .0
 00724    609.8    -158.6    .0
 00741    606.9    -159.3    .0
 00757    604.0    -158.6    .0
 00775    601.0    -158.9    .0
 00793    597.8    -158.8    .0
 00812    594.6    -158.3    .0
 00831    591.2    -158.9    .0
 00849    588.2    -158.0    .0
 00866    585.2    -158.8    .0
 00885    581.8    -158.8    .0
 00902    578.8    -158.2    .0
 00921    575.4    -158.7    .0
 00940    572.0    -158.5    .0
 00956    569.0    -158.5    .0
 00977    565.3    -158.7    .0
 00994    562.1    -158.9    .0
 01014    558.5    -158.5    .0
 01031    555.5    -158.3    .0
 01050    551.9    -158.4    .0
 01068    548.7    -157.9    .0
 01088    545.1    -157.9    .0
 01108    541.3    -157.5    .0
 01128    537.6    -157.7    .0
 01147    534.0    -157.4    .0
 01165    530.7    -157.5    .0
 01183    527.3    -157.2    .0
 01200    524.0    -157.3    .0
 01219    520.5    -157.1    .0
 01237    517.0    -157.3    .0
 01255    513.5    -157.1    .0
 01272    510.3    -157.0    .0
 01290    506.9    -156.6    .0
 01307    503.7    -156.9    .0
 01324    500.4    -156.6    .0
 01341    497.2    -156.7    .0
 01360    493.5    -156.6    .0
 01377    490.3    -156.6    .0
 01396    486.4    -156.6    .0
 01415    482.8    -156.6    .0
 01432    479.5    -156.4    .0
 01449    476.3    -156.2    .0
 01468    472.4    -156.2    .0
 01486    469.0    -156.1    .0
 01506    465.1    -156.3    .0
 01525    461.3    -156.0    .0
 01545    457.5    -156.2    .0
 01562    454.0    -155.8    .0
 01582    450.1    -156.0    .0
 01602    446.1    -156.0    .0
 01621    442.4    -155.9    .0
 01640    438.6    -155.7    .0
 01661    434.6    -156.1    .0
 01677    431.3    -155.9    .0
 01696    427.6    -155.7    .0
 01714    424.0    -155.6    .0
 01734    420.1    -155.7    .0
 01752    416.4    -155.5    .0
 01770    412.9    -155.7    .0
 01787    409.5    -155.6    .0
 01811    404.8    -155.5    .0
 01831    400.7    -155.5    .0
 01849    397.2    -155.2    .0
 01868    393.4    -155.5    .0
 01887    389.5    -155.4    .0
 01904    386.1    -155.3    .0
 01924    382.2    -155.1    .0
 01941    378.8    -155.1    .0
 01960    375.0    -155.5    .0
 01978    371.5    -155.3    .0
 01997    367.7    -155.2    .0
 02017    363.6    -155.2    .0
 02035    360.1    -155.1    .0
 02052    356.6    -155.5    .0
 02069    353.3    -155.1    .0
 02088    349.5    -155.2    .0
 02108    345.4    -155.1    .0
 02129    341.4    -155.5    .0
 02145    338.1    -155.1    .0
 02163    334.6    -155.3    .0
 02181    331.0    -154.9    .0
 02197    328.0    -155.1    .0
 02215    324.3    -155.1    .0
 02232    321.0    -155.2    .0
 02251    317.2    -155.0    .0
 02267    314.0    -155.1    .0
 02287    310.1    -155.1    .0
 02304    306.8    -155.0    .0
 02323    303.1    -155.2    .0
 02342    299.4    -154.9    .0
 02359    296.1    -155.2    .0
 02377    292.4    -154.9    .0
 02396    288.7    -155.0    .0
 02416    284.8    -155.0    .0
 02433    281.6    -155.0    .0
 02452    277.8    -155.0    .0
 02469    274.5    -155.3    .0
 02488    271.0    -154.8    .0
 02508    267.2    -155.2    .0
 02525    263.8    -154.9    .0
 02542    260.5    -155.0    .0
 02561    256.9    -155.0    .0
 02578    253.6    -155.0    .0
 02596    250.2    -154.9    .0
 02616    246.4    -155.0    .0
 02636    242.6    -155.1    .0
 02653    239.4    -155.0    .0
 02670    236.3    -155.2    .0
 02688    232.9    -155.1    .0
 02708    229.2    -155.1    .0
 02725    226.0    -155.0    .0
 02744    222.3    -155.0    .0
 02763    219.0    -154.9    .0
 02782    215.3    -154.9    .0
 02802    211.7    -155.0    .0
 02819    208.6    -155.0    .0
 02838    205.0    -154.9    .0
 02858    201.4    -155.1    .0
 02877    198.0    -154.8    .0
 02897    194.5    -155.0    .0
 02914    191.5    -154.9    .0
 02931    188.4    -155.0    .0
 02948    185.4    -154.8    .0
 02965    182.3    -154.9    .0
 02984    178.9    -155.0    .0
 03003    175.6    -154.8    .0
 03020    172.6    -155.0    .0
 03037    169.6    -155.1    .0
 03058    166.0    -154.9    .0
 03078    162.6    -155.0    .0
 03095    159.6    -154.9    .0
 03115    156.3    -154.9    .0
 03132    153.4    -154.8    .0
 03149    150.6    -154.8    .0
 03166    147.7    -155.0    .0
 03185    144.4    -154.9    .0
 03202    141.6    -155.0    .0
 03220    138.7    -155.0    .0
 03237    135.9    -155.1    .0
 03254    133.1    -155.0    .0
 03270    130.5    -155.0    .0
 03287    127.7    -155.0    .0
 03304    124.9    -155.0    .0
 03322    122.1    -155.0    .0
 03340    119.2    -154.9    .0
 03360    116.2    -155.1    .0
 03379    113.2    -155.0    .0
 03398    110.2    -155.1    .0
 03417    107.2    -155.2    .0
 03437    104.2    -155.0    .0
 03454    101.7    -155.1    .0
 03472    98.9    -155.0    .0
 03489    96.4    -155.1    .0
 03507    93.7    -155.0    .0
 03526    90.8    -155.1    .0
 03543    88.4    -155.1    .0
 03563    85.5    -155.2    .0
 03580    83.1    -155.0    .0
 03597    80.7    -155.2    .0
 03614    78.2    -155.0    .0
 03633    75.6    -155.2    .0
 03651    73.1    -155.0    .0
 03670    70.4    -155.1    .0
 03688    68.1    -155.1    .0
 03707    65.5    -155.1    .0
 03726    62.9    -155.1    .0
 03746    60.3    -155.2    .0
 03763    58.1    -155.1    .0
 03780    55.9    -155.2    .0
 03798    53.6    -155.4    .0
 03817    51.2    -155.1    .0
 03834    49.1    -155.1    .0
