time temp susc csusc
 0             0             0             0             0            no
 00000    39.3    -153.9   .0
 00019    42.0    -153.6   .0
 00038    44.7    -154.0   .0
 00056    47.3    -153.7   .0
 00074    50.0    -154.0   .0
 00093    52.8    -153.9   .0
 00111    55.5    -153.9   .0
 00126    57.8    -153.9   .0
 00142    60.2    -154.1   .0
 00160    62.9    -153.9   .0
 00178    65.7    -154.0   .0
 00196    68.4    -154.0   .0
 00214    71.1    -154.1   .0
 00231    73.8    -153.9   .0
 00246    76.2    -154.1   .0
 00264    79.1    -153.8   .0
 00282    81.9    -154.1   .0
 00300    84.8    -153.9   .0
 00318    87.7    -154.1   .0
 00336    90.6    -154.0   .0
 00354    93.5    -154.1   .0
 00371    96.4    -154.0   .0
 00388    99.2    -154.1   .0
 00404    101.8    -154.0   .0
 00421    104.6    -154.2   .0
 00439    107.6    -154.0   .0
 00457    110.6    -154.2   .0
 00475    113.6    -154.1   .0
 00493    116.7    -154.2   .0
 00511    119.8    -154.0   .0
 00526    122.3    -154.2   .0
 00544    125.5    -154.0   .0
 00562    128.6    -154.1   .0
 00581    131.8    -154.2   .0
 00595    134.4    -154.2   .0
 00611    137.1    -154.1   .0
 00627    139.9    -154.1   .0
 00643    142.7    -154.1   .0
 00658    145.3    -154.2   .0
 00676    148.5    -154.1   .0
 00691    151.2    -154.3   .0
 00708    154.4    -154.1   .0
 00726    157.5    -154.2   .0
 00744    160.8    -154.1   .0
 00762    164.0    -154.2   .0
 00777    166.9    -154.0   .0
 00795    170.1    -154.2   .0
 00814    173.5    -154.1   .0
 00829    176.2    -154.2   .0
 00844    179.1    -154.1   .0
 00862    182.3    -154.2   .0
 00880    185.7    -154.0   .0
 00897    188.9    -154.1   .0
 00916    192.4    -154.0   .0
 00931    195.2    -154.1   .0
 00949    198.5    -154.0   .0
 00964    201.4    -154.2   .0
 00982    204.8    -154.0   .0
 00997    207.6    -154.1   .0
 01012    210.4    -153.9   .0
 01030    213.8    -154.0   .0
 01048    217.2    -154.0   .0
 01065    220.6    -154.0   .0
 01083    223.9    -154.0   .0
 01098    226.8    -154.1   .0
 01113    229.8    -153.9   .0
 01131    233.1    -154.1   .0
 01149    236.6    -153.8   .0
 01166    239.9    -154.0   .0
 01184    243.5    -154.0   .0
 01200    246.5    -153.9   .0
 01215    249.5    -153.9   .0
 01231    252.6    -153.8   .0
 01246    255.5    -153.8   .0
 01263    258.9    -153.9   .0
 01278    261.8    -153.9   .0
 01294    265.0    -153.8   .0
 01311    268.3    -153.8   .0
 01327    271.4    -153.7   .0
 01343    274.6    -153.8   .0
 01359    277.6    -153.6   .0
 01375    280.8    -153.8   .0
 01393    284.5    -153.6   .0
 01408    287.4    -153.8   .0
 01424    290.5    -153.7   .0
 01438    293.4    -153.6   .0
 01456    297.0    -153.6   .0
 01472    300.1    -153.6   .0
 01487    303.0    -153.5   .0
 01502    306.1    -153.5   .0
 01518    309.2    -153.5   .0
 01533    312.2    -153.5   .0
 01551    315.8    -153.3   .0
 01567    319.1    -153.4   .0
 01585    322.6    -153.1   .0
 01600    325.7    -153.2   .0
 01619    329.3    -153.2   .0
 01633    332.3    -153.1   .0
 01649    335.5    -153.0   .0
 01665    338.6    -153.0   .0
 01682    342.1    -152.8   .0
 01697    345.1    -152.9   .0
 01712    348.1    -152.7   .0
 01727    351.1    -152.7   .0
 01743    354.2    -152.4   .0
 01759    357.6    -152.3   .0
 01778    361.3    -152.2   .0
 01795    364.7    -152.1   .0
 01812    368.1    -151.8   .0
 01828    371.3    -151.9   .0
 01846    374.9    -151.7   .0
 01861    377.9    -151.3   .0
 01877    381.3    -151.1   .0
 01896    385.0    -151.1   .0
 01911    388.0    -150.8   .0
 01927    391.2    -150.5   .0
 01942    394.3    -150.2   .0
 01960    397.9    -149.9   .0
 01976    401.1    -149.7   .0
 01994    404.7    -149.3   .0
 02009    407.8    -148.9   .0
 02025    410.9    -148.6   .0
 02041    414.0    -148.1   .0
 02056    417.0    -147.6   .0
 02073    420.4    -146.9   .0
 02089    423.6    -146.3   .0
 02107    427.2    -145.3   .0
 02123    430.5    -144.5   .0
 02139    433.6    -143.6   .0
 02157    437.2    -142.4   .0
 02172    440.2    -141.1   .0
 02190    443.7    -139.9   .0
 02206    446.9    -138.2   .0
 02222    450.0    -136.2   .0
 02240    453.6    -134.3   .0
 02258    457.1    -132.1   .0
 02274    460.3    -129.7   .0
 02292    463.8    -127.5   .0
 02307    466.8    -124.7   .0
 02323    469.9    -122.0   .0
 02340    473.4    -119.3   .0
 02356    476.4    -116.7   .0
 02371    479.4    -114.1   .0
 02387    482.4    -111.5   .0
 02405    485.9    -109.2   .0
 02421    489.0    -107.9   .0
 02438    492.4    -107.4   .0
 02453    495.4    -107.5   .0
 02471    498.8    -108.7   .0
 02487    501.8    -110.3   .0
 02502    504.7    -112.8   .0
 02519    508.1    -115.7   .0
 02537    511.5    -118.3   .0
 02554    514.8    -121.1   .0
 02572    518.1    -123.1   .0
 02587    521.0    -125.0   .0
 02604    524.2    -127.2   .0
 02620    527.2    -128.6   .0
 02638    530.6    -130.3   .0
 02656    534.1    -130.9   .0
 02674    537.4    -131.9   .0
 02692    540.8    -132.5   .0
 02708    543.8    -133.3   .0
 02726    547.2    -133.9   .0
 02742    550.1    -134.4   .0
 02759    553.3    -135.2   .0
 02777    556.5    -135.9   .0
 02792    559.4    -136.4   .0
 02807    562.1    -137.2   .0
 02825    565.4    -138.3   .0
 02843    568.6    -139.4   .0
 02861    571.8    -140.2   .0
 02876    574.6    -141.6   .0
 02894    577.9    -142.9   .0
 02911    581.0    -144.4   .0
 02929    584.0    -145.5   .0
 02943    586.7    -146.4   .0
 02959    589.5    -147.9   .0
 02978    592.7    -149.3   .0
 02993    595.5    -150.4   .0
 03009    598.2    -151.7   .0
 03024    600.9    -153.2   .0
 03042    604.0    -154.5   .0
 03060    607.0    -155.6   .0
 03075    609.7    -156.5   .0
 03090    612.3    -157.4   .0
 03106    615.0    -157.9   .0
 03123    618.0    -158.4   .0
 03140    620.8    -158.4   .0
 03156    623.5    -159.1   .0
 03174    626.5    -159.3   .0
 03189    629.0    -159.1   .0
 03205    631.7    -159.3   .0
 03222    634.5    -159.2   .0
 03238    637.2    -159.2   .0
 03256    640.1    -159.4   .0
 03273    642.9    -159.3   .0
 03290    645.6    -159.4   .0
 03308    648.5    -159.4   .0
 03323    650.9    -159.4   .0
 03338    653.3    -159.3   .0
 03355    656.0    -159.5   .0
 03373    658.9    -159.6   .0
 03389    661.3    -159.5   .0
 03406    664.0    -159.6   .0
 03424    666.8    -159.5   .0
 03440    669.2    -159.6   .0
 03455    671.5    -159.3   .0
 03470    673.9    -159.6   .0
 03488    676.6    -159.5   .0
 03506    679.2    -159.6   .0
 03524    681.8    -159.4   .0
 03541    684.4    -159.7   .0
 03556    686.7    -159.4   .0
 03573    689.1    -159.7   .0
 03591    691.8    -159.8   .0
 00005    692.3    -159.4    .0
 00018    693.7    -159.3    .0
 00036    695.7    -159.6    .0
 00052    697.5    -159.6    .0
 00069    699.7    -159.5    .0
 00087    701.9    -159.6    .0
 00102    703.3    -159.5    .0
 00118    701.3    -159.4    .0
 00136    698.9    -159.5    .0
 00153    696.6    -159.5    .0
 00171    694.1    -159.7    .0
 00189    691.7    -159.7    .0
 00204    689.5    -159.5    .0
 00220    687.3    -159.4    .0
 00238    684.8    -159.6    .0
 00255    682.3    -159.6    .0
 00273    679.8    -159.5    .0
 00290    677.4    -159.3    .0
 00307    674.8    -159.3    .0
 00324    672.3    -159.4    .0
 00343    669.6    -159.3    .0
 00358    667.3    -159.4    .0
 00375    664.7    -159.4    .0
 00393    662.1    -159.4    .0
 00408    659.8    -159.3    .0
 00422    657.6    -159.3    .0
 00441    654.8    -159.5    .0
 00458    652.0    -159.3    .0
 00474    649.6    -159.3    .0
 00489    647.1    -159.2    .0
 00507    644.4    -159.3    .0
 00524    641.7    -159.2    .0
 00541    638.9    -159.2    .0
 00559    636.0    -159.1    .0
 00577    633.2    -159.3    .0
 00592    630.7    -159.1    .0
 00607    628.2    -159.2    .0
 00625    625.3    -159.1    .0
 00641    622.7    -158.9    .0
 00655    620.2    -158.9    .0
 00673    617.2    -158.8    .0
 00691    614.2    -159.0    .0
 00707    611.6    -158.7    .0
 00722    608.9    -158.8    .0
 00741    605.8    -158.7    .0
 00756    603.1    -158.7    .0
 00774    600.1    -158.6    .0
 00792    597.0    -158.7    .0
 00809    594.1    -158.5    .0
 00824    591.3    -158.2    .0
 00842    588.3    -158.4    .0
 00860    585.1    -158.2    .0
 00875    582.4    -157.9    .0
 00892    579.4    -157.8    .0
 00910    576.2    -157.4    .0
 00927    573.2    -157.0    .0
 00944    570.0    -156.5    .0
 00962    566.9    -155.2    .0
 00979    563.7    -154.0    .0
 00997    560.5    -151.9    .0
 01015    557.3    -148.6    .0
 01032    554.1    -144.3    .0
 01048    551.2    -137.1    .0
 01065    548.1    -128.1    .0
 01083    544.8    -119.0    .0
 01098    541.9    -107.3    .0
 01116    538.5    -96.5    .0
 01135    535.1    -88.8    .0
 01150    532.3    -81.2    .0
 01165    529.4    -72.5    .0
 01183    525.9    -63.1    .0
 01201    522.7    -51.0    .0
 01218    519.4    -37.6    .0
 01234    516.5    -22.1    .0
 01248    513.6    .6    .0
 01266    510.3    29.6    .0
 01285    506.7    61.2    .0
 01300    503.8    108.8    .0
 01318    500.4    169.5    .0
 01336    496.9    199.9    .0
 01353    493.5    199.9    .0
 01369    490.6    199.9    .0
 01384    487.6    199.9    .0
 01401    484.2    199.9    .0
 01419    480.8    199.9    .0
 01435    477.8    199.9    .0
 01450    474.7    199.9    .0
 01469    471.2    199.9    .0
 01484    468.2    199.9    .0
 01501    464.7    199.9    .0
 01519    461.3    199.9    .0
 01536    457.9    199.9    .0
 01553    454.6    199.9    .0
 01571    451.1    199.9    .0
 01588    447.6    199.9    .0
 01606    444.1    199.9    .0
 01623    440.9    199.9    .0
 01640    437.5    199.9    .0
 01657    434.0    199.9    .0
 01673    430.9    199.9    .0
 01689    427.7    199.9    .0
 01708    424.0    199.9    .0
 01725    420.5    199.9    .0
 01741    417.5    199.9    .0
 01756    414.5    199.9    .0
 01774    410.8    199.9    .0
 01790    407.7    199.9    .0
 01807    404.2    199.9    .0
 01823    401.1    199.9    .0
 01838    398.0    199.9    .0
 01856    394.6    199.9    .0
 01874    390.9    199.9    .0
 01892    387.4    199.9    .0
 01908    384.1    199.9    .0
 01923    381.0    199.9    .0
 01939    378.0    199.9    .0
 01956    374.6    199.9    .0
 01973    371.2    199.9    .0
 01991    367.6    199.9    .0
 02008    364.2    199.9    .0
 02025    360.8    199.9    .0
 02041    357.7    199.9    .0
 02056    354.6    199.9    .0
 02074    351.1    199.9    .0
 02091    347.6    199.9    .0
 02108    344.2    199.9    .0
 02123    341.3    199.9    .0
 02139    338.1    199.9    .0
 02157    334.5    199.9    .0
 02172    331.6    199.9    .0
 02188    328.4    199.9    .0
 02206    324.8    199.9    .0
 02224    321.2    199.9    .0
 02242    317.7    199.9    .0
 02257    314.7    199.9    .0
 02273    311.6    199.9    .0
 02290    308.2    199.9    .0
 02305    305.3    199.9    .0
 02320    302.3    199.9    .0
 02338    298.8    199.9    .0
 02356    295.3    199.9    .0
 02373    292.0    199.2    .0
 02388    289.1    197.9    .0
 02404    285.9    195.8    .0
 02423    282.3    194.6    .0
 02439    279.2    192.8    .0
 02457    275.7    191.4    .0
 02472    272.7    190.2    .0
 02487    269.9    188.7    .0
 02505    266.5    187.3    .0
 02520    263.5    186.1    .0
 02536    260.4    184.5    .0
 02555    256.9    183.5    .0
 02570    254.0    182.3    .0
 02585    251.2    181.3    .0
 02601    248.1    179.8    .0
 02619    244.7    179.0    .0
 02634    241.8    177.8    .0
 02649    238.9    176.8    .0
 02665    236.0    175.7    .0
 02682    232.7    174.7    .0
 02698    229.8    173.7    .0
 02713    227.0    172.8    .0
 02728    224.1    171.8    .0
 02746    220.8    170.8    .0
 02762    217.9    170.1    .0
 02778    215.0    168.9    .0
 02796    211.7    168.1    .0
 02811    208.9    167.5    .0
 02826    206.2    166.5    .0
 02844    202.9    165.7    .0
 02861    199.8    164.9    .0
 02878    196.7    164.1    .0
 02893    193.9    163.4    .0
 02908    191.3    162.7    .0
 02926    188.1    162.1    .0
 02941    185.5    161.4    .0
 02958    182.3    160.9    .0
 02973    179.7    160.2    .0
 02989    177.0    159.7    .0
 03004    174.4    159.2    .0
 03022    171.2    158.5    .0
 03039    168.2    158.1    .0
 03054    165.6    157.7    .0
 03070    162.8    157.2    .0
 03089    159.6    156.8    .0
 03105    156.9    156.3    .0
 03123    153.8    156.0    .0
 03139    151.1    155.7    .0
 03154    148.5    155.4    .0
 03169    146.0    155.0    .0
 03187    143.1    154.9    .0
 03202    140.6    154.6    .0
 03220    137.7    154.2    .0
 03235    135.1    154.2    .0
 03253    132.3    153.9    .0
 03271    129.3    153.9    .0
 03288    126.5    153.6    .0
 03306    123.6    153.7    .0
 03323    120.9    153.6    .0
 03341    118.1    153.6    .0
 03357    115.6    153.5    .0
 03374    112.8    153.6    .0
 03389    110.5    153.6    .0
 03407    107.8    153.6    .0
 03422    105.5    153.8    .0
 03437    103.2    153.8    .0
 03455    100.5    153.9    .0
 03472    97.9    154.0    .0
 03490    95.3    154.1    .0
 03505    93.0    154.3    .0
 03523    90.4    154.5    .0
 03540    87.9    154.6    .0
 03555    85.7    154.7    .0
 03570    83.6    154.9    .0
 03585    81.5    155.2    .0
 03600    79.3    155.4    .0
 03618    76.9    155.7    .0
 03633    74.6    155.8    .0
 03651    72.2    156.2    .0
 03666    70.1    156.3    .0
 03684    67.7    156.7    .0
 03700    65.6    157.0    .0
 03717    63.2    157.3    .0
 03733    61.2    157.6    .0
 03751    58.9    157.9    .0
 03766    56.9    158.1    .0
 03783    54.7    158.4    .0
 03798    52.8    158.7    .0
 03813    51.0    158.9    .0
 03830    48.8    159.3    .0
