time temp susc csusc
 0             0             0             0             0            no
 00000    39.3    -157.3   .0
 00021    42.2    -157.0   .0
 00040    45.0    -157.2   .0
 00058    47.7    -157.1   .0
 00076    50.3    -157.3   .0
 00094    52.9    -157.0   .0
 00112    55.6    -157.3   .0
 00130    58.4    -157.2   .0
 00148    61.1    -157.3   .0
 00165    63.7    -157.2   .0
 00183    66.4    -157.3   .0
 00199    68.8    -157.2   .0
 00216    71.5    -157.3   .0
 00234    74.3    -157.3   .0
 00252    77.1    -157.4   .0
 00270    80.0    -157.2   .0
 00285    82.4    -157.4   .0
 00303    85.3    -157.4   .0
 00320    88.0    -157.4   .0
 00336    90.6    -157.4   .0
 00351    93.0    -157.5   .0
 00366    95.6    -157.3   .0
 00382    98.1    -157.4   .0
 00400    101.0    -157.4   .0
 00415    103.5    -157.5   .0
 00433    106.6    -157.4   .0
 00448    109.2    -157.5   .0
 00467    112.3    -157.5   .0
 00484    115.2    -157.5   .0
 00502    118.3    -157.4   .0
 00520    121.3    -157.6   .0
 00538    124.4    -157.7   .0
 00556    127.5    -157.7   .0
 00573    130.5    -157.5   .0
 00589    133.2    -157.6   .0
 00607    136.4    -157.5   .0
 00625    139.6    -157.6   .0
 00643    142.8    -157.5   .0
 00658    145.4    -157.6   .0
 00676    148.7    -157.5   .0
 00691    151.3    -157.6   .0
 00709    154.6    -157.4   .0
 00727    157.8    -157.6   .0
 00746    161.1    -157.5   .0
 00763    164.2    -157.7   .0
 00781    167.5    -157.4   .0
 00798    170.6    -157.7   .0
 00816    173.9    -157.5   .0
 00834    177.2    -157.8   .0
 00852    180.5    -157.7   .0
 00870    183.9    -157.7   .0
 00889    187.3    -157.6   .0
 00904    190.1    -157.8   .0
 00922    193.5    -157.7   .0
 00937    196.2    -157.8   .0
 00955    199.6    -157.6   .0
 00970    202.5    -157.8   .0
 00988    205.9    -157.8   .0
 01004    208.9    -157.7   .0
 01019    211.8    -157.7   .0
 01035    214.8    -157.7   .0
 01050    217.7    -157.9   .0
 01066    220.7    -157.6   .0
 01084    224.1    -157.8   .0
 01102    227.6    -157.6   .0
 01118    230.7    -157.8   .0
 01136    234.1    -157.7   .0
 01153    237.4    -157.8   .0
 01171    240.9    -157.7   .0
 01187    244.0    -157.8   .0
 01204    247.4    -157.9   .0
 01219    250.3    -157.8   .0
 01234    253.3    -157.9   .0
 01250    256.4    -157.8   .0
 01265    259.3    -157.8   .0
 01281    262.3    -158.0   .0
 01296    265.4    -157.8   .0
 01312    268.5    -157.9   .0
 01331    272.1    -157.8   .0
 01346    275.2    -158.0   .0
 01362    278.3    -157.7   .0
 01380    281.8    -158.0   .0
 01398    285.4    -157.9   .0
 01416    288.9    -158.0   .0
 01434    292.5    -157.9   .0
 01452    296.1    -158.1   .0
 01470    299.8    -157.9   .0
 01485    302.7    -158.1   .0
 01503    306.3    -157.9   .0
 01518    309.3    -158.0   .0
 01536    312.9    -158.1   .0
 01551    315.9    -158.0   .0
 01566    318.9    -158.1   .0
 01582    322.0    -158.1   .0
 01597    325.0    -157.9   .0
 01614    328.5    -158.0   .0
 01633    332.2    -158.0   .0
 01648    335.2    -158.1   .0
 01666    338.9    -158.0   .0
 01683    342.2    -158.1   .0
 01701    345.8    -158.0   .0
 01718    349.3    -158.0   .0
 01736    353.0    -158.0   .0
 01753    356.3    -158.2   .0
 01771    359.8    -158.1   .0
 01786    362.8    -158.2   .0
 01804    366.5    -158.0   .0
 01822    370.2    -158.1   .0
 01840    373.8    -158.0   .0
 01857    377.1    -158.1   .0
 01875    380.8    -158.1   .0
 01890    383.8    -158.1   .0
 01905    386.8    -158.0   .0
 01922    390.3    -158.3   .0
 01940    393.9    -158.1   .0
 01956    397.0    -158.0   .0
 01971    400.1    -158.0   .0
 01987    403.2    -157.7   .0
 02003    406.4    -157.5   .0
 02021    410.0    -156.8   .0
 02037    413.2    -156.2   .0
 02054    416.7    -155.9   .0
 02071    420.0    -155.4   .0
 02086    423.1    -155.0   .0
 02102    426.2    -154.8   .0
 02119    429.6    -154.5   .0
 02134    432.5    -154.3   .0
 02149    435.6    -154.0   .0
 02167    439.1    -153.8   .0
 02185    442.8    -153.3   .0
 02200    445.8    -153.2   .0
 02218    449.3    -152.8   .0
 02234    452.5    -152.6   .0
 02252    456.0    -152.2   .0
 02267    459.0    -152.1   .0
 02285    462.6    -151.9   .0
 02300    465.5    -151.7   .0
 02316    468.7    -151.7   .0
 02335    472.3    -151.7   .0
 02350    475.2    -151.5   .0
 02365    478.3    -151.6   .0
 02383    481.8    -151.8   .0
 02399    484.8    -151.7   .0
 02414    487.7    -152.0   .0
 02432    491.2    -152.2   .0
 02447    494.0    -152.4   .0
 02462    497.1    -152.7   .0
 02480    500.6    -153.1   .0
 02496    503.6    -153.4   .0
 02513    506.9    -153.7   .0
 02529    509.9    -153.7   .0
 02547    513.4    -154.3   .0
 02565    516.9    -154.3   .0
 02583    520.2    -154.6   .0
 02602    523.8    -155.0   .0
 02618    526.8    -155.2   .0
 02633    529.7    -155.4   .0
 02648    532.6    -155.7   .0
 02664    535.5    -155.7   .0
 02679    538.3    -155.5   .0
 02694    541.2    -156.1   .0
 02709    544.0    -156.4   .0
 02725    546.9    -156.6   .0
 02742    550.2    -157.0   .0
 02758    553.0    -157.1   .0
 02773    555.8    -157.6   .0
 02791    559.1    -157.7   .0
 02806    561.8    -158.0   .0
 02822    564.7    -158.5   .0
 02840    568.0    -158.8   .0
 02855    570.7    -158.9   .0
 02872    573.9    -159.0   .0
 02890    577.1    -159.3   .0
 02905    579.8    -159.3   .0
 02920    582.5    -159.3   .0
 02937    585.5    -159.4   .0
 02954    588.5    -159.3   .0
 02972    591.6    -159.4   .0
 02990    594.9    -159.3   .0
 03005    597.6    -159.6   .0
 03021    600.3    -159.5   .0
 03037    603.0    -159.5   .0
 03054    606.1    -159.7   .0
 03072    609.2    -159.6   .0
 03088    611.9    -159.7   .0
 03103    614.5    -159.5   .0
 03120    617.3    -159.8   .0
 03138    620.4    -160.0   .0
 03155    623.3    -159.7   .0
 03170    625.9    -159.8   .0
 03186    628.6    -159.6   .0
 03204    631.6    -159.9   .0
 03220    634.2    -159.8   .0
 03237    637.0    -160.0   .0
 03252    639.4    -160.0   .0
 03267    642.0    -160.1   .0
 03283    644.5    -159.8   .0
 03301    647.4    -159.8   .0
 03319    650.3    -160.0   .0
 03337    653.1    -160.0   .0
 03353    655.7    -160.1   .0
 03369    658.2    -159.9   .0
 03384    660.5    -160.0   .0
 03402    663.4    -160.1   .0
 03419    666.0    -160.1   .0
 03434    668.4    -160.1   .0
 03452    671.0    -160.1   .0
 03470    673.8    -160.0   .0
 03487    676.4    -159.4   .0
 03505    679.0    -159.9   .0
 03522    681.6    -160.3   .0
 03537    683.8    -160.2   .0
 03553    686.2    -160.1   .0
 03571    688.8    -160.1   .0
 03588    691.3    -160.2   .0
 00005    691.8    -160.1    .0
 00018    693.2    -160.1    .0
 00036    695.2    -160.2    .0
 00051    697.0    -160.3    .0
 00067    698.9    -160.1    .0
 00082    700.8    -160.1    .0
 00098    702.9    -160.2    .0
 00116    701.0    -160.3    .0
 00132    698.9    -160.2    .0
 00149    696.7    -160.1    .0
 00166    694.3    -160.0    .0
 00184    691.8    -160.1    .0
 00199    689.7    -160.1    .0
 00215    687.5    -160.2    .0
 00231    685.3    -160.1    .0
 00246    683.2    -160.0    .0
 00262    680.9    -159.9    .0
 00280    678.3    -160.0    .0
 00298    675.7    -160.2    .0
 00313    673.5    -159.8    .0
 00331    670.9    -160.2    .0
 00349    668.1    -159.8    .0
 00367    665.4    -159.9    .0
 00386    662.6    -159.8    .0
 00403    660.0    -160.3    .0
 00421    657.2    -159.8    .0
 00439    654.4    -159.9    .0
 00457    651.6    -160.0    .0
 00473    649.2    -159.9    .0
 00488    646.7    -160.0    .0
 00503    644.4    -159.8    .0
 00520    641.7    -159.8    .0
 00538    638.8    -160.0    .0
 00554    636.3    -159.7    .0
 00570    633.7    -159.7    .0
 00589    630.7    -160.0    .0
 00604    628.1    -159.9    .0
 00619    625.6    -159.9    .0
 00634    623.2    -159.7    .0
 00650    620.6    -159.7    .0
 00667    617.6    -159.8    .0
 00685    614.6    -159.8    .0
 00701    612.0    -159.6    .0
 00717    609.3    -159.7    .0
 00735    606.2    -159.7    .0
 00750    603.6    -159.5    .0
 00766    600.8    -159.6    .0
 00784    597.7    -159.7    .0
 00799    595.1    -159.5    .0
 00815    592.3    -159.4    .0
 00832    589.4    -159.4    .0
 00850    586.2    -159.5    .0
 00867    583.2    -159.5    .0
 00884    580.2    -159.4    .0
 00899    577.4    -159.4    .0
 00916    574.4    -159.4    .0
 00932    571.7    -159.3    .0
 00947    568.9    -159.3    .0
 00966    565.6    -159.3    .0
 00982    562.6    -159.4    .0
 00997    559.8    -158.8    .0
 01015    556.6    -158.8    .0
 01033    553.2    -158.4    .0
 01048    550.5    -157.8    .0
 01064    547.5    -157.0    .0
 01082    544.2    -156.1    .0
 01100    540.8    -155.1    .0
 01117    537.7    -153.9    .0
 01133    534.8    -152.9    .0
 01149    531.8    -151.8    .0
 01167    528.4    -151.0    .0
 01182    525.5    -150.0    .0
 01197    522.6    -148.9    .0
 01216    519.2    -148.0    .0
 01233    515.8    -147.1    .0
 01249    512.8    -146.2    .0
 01264    510.0    -145.2    .0
 01282    506.6    -144.4    .0
 01297    503.6    -143.6    .0
 01313    500.6    -142.8    .0
 01331    497.1    -142.0    .0
 01349    493.7    -141.4    .0
 01364    490.7    -140.7    .0
 01380    487.7    -140.3    .0
 01398    484.2    -139.9    .0
 01416    480.7    -139.8    .0
 01431    477.8    -139.3    .0
 01449    474.2    -139.1    .0
 01468    470.6    -138.7    .0
 01483    467.7    -138.8    .0
 01501    464.2    -138.2    .0
 01517    460.9    -138.0    .0
 01533    457.9    -137.7    .0
 01550    454.5    -137.5    .0
 01569    450.8    -137.4    .0
 01584    447.8    -137.2    .0
 01601    444.4    -137.1    .0
 01620    440.8    -136.9    .0
 01635    437.7    -136.9    .0
 01653    434.1    -136.8    .0
 01669    431.0    -136.7    .0
 01684    428.0    -136.4    .0
 01701    424.5    -136.4    .0
 01717    421.6    -136.2    .0
 01732    418.6    -136.3    .0
 01750    414.9    -136.2    .0
 01765    411.9    -136.0    .0
 01782    408.5    -136.0    .0
 01800    404.9    -136.1    .0
 01816    401.8    -136.1    .0
 01832    398.6    -135.9    .0
 01847    395.6    -136.1    .0
 01865    392.0    -135.9    .0
 01881    388.8    -136.0    .0
 01899    385.2    -136.0    .0
 01914    382.2    -136.0    .0
 01929    379.2    -135.9    .0
 01944    376.2    -135.9    .0
 01962    372.7    -135.8    .0
 01979    369.2    -135.9    .0
 01995    366.0    -135.9    .0
 02010    363.0    -135.9    .0
 02026    360.0    -135.9    .0
 02041    356.9    -136.0    .0
 02056    353.9    -135.8    .0
 02074    350.3    -135.9    .0
 02092    346.7    -136.0    .0
 02107    343.7    -136.0    .0
 02125    340.3    -136.0    .0
 02143    336.7    -136.0    .0
 02158    333.6    -136.0    .0
 02174    330.5    -136.0    .0
 02189    327.5    -136.0    .0
 02205    324.4    -136.1    .0
 02220    321.3    -136.0    .0
 02235    318.3    -136.0    .0
 02251    315.2    -136.1    .0
 02269    311.7    -136.2    .0
 02287    308.2    -136.3    .0
 02302    305.2    -136.2    .0
 02317    302.2    -136.2    .0
 02334    298.9    -136.4    .0
 02352    295.4    -136.4    .0
 02368    292.3    -136.3    .0
 02383    289.4    -136.1    .0
 02401    285.8    -136.5    .0
 02416    282.9    -136.4    .0
 02432    279.9    -136.5    .0
 02450    276.4    -136.5    .0
 02465    273.4    -136.4    .0
 02481    270.4    -136.6    .0
 02499    267.0    -136.7    .0
 02514    264.0    -136.6    .0
 02529    261.2    -136.7    .0
 02546    257.9    -136.7    .0
 02563    254.7    -136.8    .0
 02580    251.3    -136.9    .0
 02597    248.1    -136.9    .0
 02613    245.1    -136.9    .0
 02628    242.3    -136.9    .0
 02644    239.2    -137.0    .0
 02663    235.8    -137.1    .0
 02678    232.8    -137.2    .0
 02693    230.0    -137.1    .0
 02711    226.7    -137.2    .0
 02728    223.5    -137.2    .0
 02745    220.4    -137.2    .0
 02763    217.1    -137.3    .0
 02779    214.2    -137.3    .0
 02794    211.3    -137.4    .0
 02812    208.1    -137.5    .0
 02827    205.3    -137.3    .0
 02844    202.2    -137.4    .0
 02863    198.9    -137.6    .0
 02878    196.1    -137.6    .0
 02894    193.3    -137.5    .0
 02911    190.1    -137.7    .0
 02927    187.3    -137.6    .0
 02944    184.2    -137.7    .0
 02963    180.9    -137.8    .0
 02980    177.9    -137.7    .0
 02995    175.2    -138.0    .0
 03014    172.0    -138.0    .0
 03031    169.0    -138.0    .0
 03049    165.8    -137.9    .0
 03065    163.1    -138.0    .0
 03083    160.0    -138.0    .0
 03099    157.2    -138.1    .0
 03117    154.1    -138.1    .0
 03134    151.4    -138.2    .0
 03151    148.4    -138.2    .0
 03166    145.9    -138.2    .0
 03181    143.4    -138.3    .0
 03196    140.9    -138.3    .0
 03212    138.3    -138.3    .0
 03228    135.8    -138.4    .0
 03246    132.8    -138.3    .0
 03262    130.2    -138.4    .0
 03277    127.8    -138.3    .0
 03293    125.2    -138.5    .0
 03310    122.4    -138.3    .0
 03326    119.8    -138.4    .0
 03345    117.0    -138.5    .0
 03361    114.4    -138.4    .0
 03377    112.0    -138.4    .0
 03392    109.6    -138.5    .0
 03409    106.9    -138.5    .0
 03425    104.5    -138.5    .0
 03440    102.2    -138.5    .0
 03456    99.8    -138.5    .0
 03474    97.2    -138.5    .0
 03489    94.8    -138.5    .0
 03507    92.2    -138.5    .0
 03525    89.6    -138.6    .0
 03540    87.4    -138.5    .0
 03555    85.2    -138.6    .0
 03570    83.0    -138.4    .0
 03586    80.9    -138.6    .0
 03604    78.3    -138.6    .0
 03622    75.7    -138.6    .0
 03640    73.3    -138.5    .0
 03656    71.1    -138.6    .0
 03673    68.7    -138.6    .0
 03689    66.6    -138.7    .0
 03704    64.5    -138.6    .0
 03722    62.1    -138.6    .0
 03740    59.8    -138.6    .0
 03756    57.8    -138.7    .0
 03771    55.8    -138.6    .0
 03786    53.9    -138.7    .0
 03802    51.9    -138.6    .0
 03817    49.9    -138.6    .0
