time temp susc csusc
 0             0             0             0             0            no
 00000    39.3    -157.3   .0
 00020    42.1    -157.1   .0
 00038    44.8    -157.3   .0
 00057    47.5    -157.2   .0
 00075    50.1    -157.4   .0
 00090    52.4    -157.3   .0
 00108    55.0    -157.4   .0
 00124    57.4    -157.3   .0
 00141    60.0    -157.5   .0
 00159    62.8    -157.5   .0
 00176    65.4    -157.5   .0
 00195    68.2    -157.4   .0
 00213    71.0    -157.6   .0
 00231    73.8    -157.4   .0
 00248    76.5    -157.6   .0
 00265    79.3    -157.4   .0
 00281    81.7    -157.6   .0
 00299    84.6    -157.4   .0
 00317    87.5    -157.5   .0
 00335    90.5    -157.5   .0
 00350    92.9    -157.7   .0
 00369    96.0    -157.4   .0
 00387    98.9    -157.6   .0
 00405    101.9    -157.5   .0
 00422    104.7    -157.6   .0
 00440    107.8    -157.4   .0
 00455    110.3    -157.7   .0
 00474    113.4    -157.6   .0
 00492    116.5    -157.6   .0
 00507    119.1    -157.6   .0
 00523    121.8    -157.5   .0
 00539    124.6    -157.7   .0
 00555    127.3    -157.5   .0
 00572    130.3    -157.9   .0
 00587    133.0    -157.5   .0
 00605    136.1    -157.7   .0
 00623    139.3    -157.7   .0
 00640    142.2    -157.7   .0
 00658    145.4    -157.6   .0
 00673    148.1    -157.7   .0
 00691    151.3    -157.7   .0
 00707    154.1    -157.8   .0
 00725    157.3    -157.6   .0
 00742    160.5    -157.7   .0
 00760    163.7    -157.7   .0
 00775    166.5    -157.7   .0
 00791    169.4    -157.7   .0
 00808    172.5    -157.7   .0
 00824    175.3    -157.6   .0
 00839    178.1    -157.7   .0
 00857    181.4    -157.7   .0
 00873    184.4    -157.8   .0
 00890    187.5    -157.7   .0
 00905    190.4    -157.8   .0
 00921    193.3    -157.7   .0
 00936    196.1    -157.8   .0
 00951    198.9    -157.7   .0
 00968    202.2    -157.8   .0
 00986    205.6    -157.7   .0
 01004    209.0    -157.8   .0
 01023    212.5    -157.7   .0
 01039    215.5    -157.9   .0
 01057    219.0    -157.8   .0
 01073    222.1    -157.8   .0
 01091    225.6    -157.7   .0
 01107    228.7    -157.8   .0
 01126    232.2    -157.7   .0
 01143    235.5    -157.8   .0
 01158    238.5    -157.8   .0
 01176    241.8    -158.0   .0
 01194    245.3    -157.6   .0
 01211    248.8    -157.8   .0
 01229    252.3    -157.8   .0
 01245    255.3    -157.9   .0
 01263    258.8    -157.7   .0
 01278    261.7    -157.9   .0
 01295    265.2    -157.8   .0
 01312    268.4    -157.9   .0
 01330    272.0    -157.6   .0
 01346    275.1    -157.9   .0
 01364    278.7    -157.7   .0
 01382    282.3    -157.8   .0
 01401    285.9    -157.7   .0
 01415    288.9    -157.9   .0
 01434    292.5    -157.7   .0
 01452    296.2    -157.7   .0
 01471    299.8    -157.7   .0
 01486    302.9    -157.7   .0
 01504    306.4    -157.8   .0
 01520    309.6    -157.8   .0
 01535    312.6    -157.7   .0
 01551    315.8    -157.7   .0
 01569    319.3    -157.6   .0
 01585    322.6    -157.7   .0
 01602    326.1    -157.6   .0
 01617    329.1    -157.8   .0
 01635    332.7    -157.5   .0
 01651    335.8    -157.5   .0
 01669    339.5    -157.5   .0
 01687    343.0    -157.6   .0
 01705    346.7    -157.4   .0
 01723    350.3    -157.5   .0
 01741    353.8    -157.4   .0
 01757    357.2    -157.5   .0
 01776    360.9    -157.3   .0
 01791    363.9    -157.4   .0
 01808    367.4    -157.2   .0
 01824    370.6    -157.2   .0
 01842    374.2    -157.2   .0
 01858    377.4    -157.1   .0
 01875    380.9    -157.0   .0
 01891    384.0    -156.8   .0
 01906    387.1    -156.7   .0
 01923    390.5    -156.7   .0
 01939    393.7    -156.3   .0
 01955    396.8    -156.0   .0
 01972    400.3    -155.5   .0
 01987    403.3    -154.9   .0
 02003    406.4    -154.1   .0
 02019    409.6    -153.4   .0
 02034    412.7    -152.0   .0
 02051    416.2    -150.9   .0
 02070    419.8    -149.1   .0
 02088    423.4    -147.7   .0
 02106    427.1    -145.8   .0
 02124    430.7    -144.4   .0
 02142    434.3    -142.9   .0
 02157    437.2    -141.3   .0
 02176    440.9    -139.4   .0
 02193    444.3    -137.4   .0
 02211    447.8    -135.5   .0
 02228    451.3    -133.9   .0
 02243    454.2    -131.8   .0
 02259    457.3    -129.2   .0
 02277    461.0    -127.0   .0
 02292    463.9    -124.2   .0
 02308    467.0    -121.6   .0
 02323    470.0    -118.3   .0
 02338    472.9    -114.2   .0
 02356    476.5    -110.6   .0
 02371    479.5    -105.4   .0
 02389    482.9    -101.1   .0
 02407    486.4    -97.0   .0
 02425    489.9    -94.9   .0
 02444    493.5    -95.1   .0
 02461    496.8    -98.5   .0
 02479    500.4    -103.7   .0
 02495    503.4    -111.7   .0
 02512    506.7    -119.2   .0
 02528    509.7    -127.7   .0
 02545    513.0    -134.1   .0
 02561    516.1    -139.7   .0
 02578    519.3    -143.5   .0
 02594    522.2    -145.9   .0
 02610    525.4    -148.0   .0
 02629    528.9    -148.9   .0
 02645    531.9    -149.6   .0
 02660    534.8    -150.3   .0
 02677    538.0    -151.0   .0
 02696    541.4    -151.1   .0
 02713    544.7    -151.6   .0
 02731    548.0    -151.9   .0
 02747    551.0    -152.3   .0
 02764    554.2    -152.7   .0
 02781    557.3    -153.2   .0
 02799    560.5    -153.6   .0
 02815    563.6    -153.9   .0
 02833    566.8    -154.6   .0
 02851    570.0    -154.9   .0
 02867    572.9    -155.2   .0
 02882    575.7    -155.5   .0
 02897    578.4    -156.3   .0
 02915    581.7    -156.5   .0
 02931    584.4    -156.9   .0
 02948    587.4    -157.5   .0
 02965    590.5    -157.5   .0
 02981    593.3    -158.1   .0
 02997    596.1    -158.3   .0
 03015    599.3    -158.6   .0
 03031    602.1    -158.9   .0
 03047    604.8    -158.8   .0
 03063    607.5    -159.2   .0
 03081    610.6    -159.3   .0
 03096    613.3    -159.3   .0
 03112    616.0    -159.4   .0
 03130    619.1    -159.4   .0
 03147    622.0    -159.4   .0
 03163    624.7    -159.5   .0
 03181    627.7    -159.6   .0
 03197    630.3    -159.5   .0
 03212    632.8    -159.7   .0
 03230    635.8    -159.6   .0
 03247    638.6    -159.6   .0
 03265    641.6    -159.7   .0
 03283    644.5    -159.7   .0
 03299    647.0    -159.8   .0
 03317    649.9    -159.6   .0
 03334    652.7    -160.3   .0
 03350    655.2    -159.6   .0
 03365    657.5    -160.3   .0
 03380    659.9    -159.8   .0
 03397    662.6    -159.9   .0
 03415    665.4    -159.6   .0
 03433    668.2    -159.8   .0
 03451    670.9    -159.9   .0
 03469    673.6    -159.9   .0
 03486    676.2    -159.9   .0
 03501    678.5    -159.8   .0
 03517    680.9    -159.8   .0
 03535    683.6    -160.0   .0
 03553    686.1    -159.8   .0
 03571    688.7    -159.2   .0
 03588    691.3    -159.9   .0
 00005    691.8    -159.7    .0
 00018    693.2    -159.9    .0
 00037    695.3    -159.9    .0
 00052    697.1    -159.9    .0
 00067    699.0    -159.8    .0
 00083    700.9    -159.8    .0
 00100    703.2    -160.0    .0
 00118    700.8    -160.1    .0
 00135    698.5    -160.0    .0
 00151    696.4    -159.9    .0
 00166    694.4    -159.8    .0
 00184    691.9    -159.9    .0
 00201    689.5    -159.9    .0
 00219    687.1    -159.7    .0
 00234    684.9    -159.8    .0
 00249    682.8    -159.8    .0
 00267    680.2    -159.8    .0
 00284    677.7    -159.8    .0
 00300    675.4    -159.7    .0
 00316    673.1    -159.6    .0
 00333    670.5    -159.6    .0
 00351    667.8    -159.7    .0
 00369    665.1    -159.7    .0
 00385    662.8    -159.7    .0
 00400    660.5    -159.5    .0
 00417    657.9    -159.6    .0
 00435    655.1    -159.5    .0
 00453    652.4    -159.4    .0
 00470    649.7    -159.6    .0
 00485    647.3    -159.4    .0
 00501    644.9    -159.3    .0
 00519    642.0    -159.6    .0
 00534    639.5    -159.3    .0
 00549    637.1    -159.3    .0
 00568    634.1    -159.4    .0
 00583    631.7    -159.2    .0
 00598    629.2    -159.2    .0
 00616    626.2    -159.1    .0
 00634    623.3    -159.0    .0
 00651    620.4    -159.0    .0
 00668    617.5    -159.1    .0
 00686    614.5    -158.9    .0
 00703    611.7    -158.9    .0
 00720    608.8    -158.4    .0
 00735    606.2    -158.5    .0
 00751    603.5    -158.6    .0
 00769    600.4    -158.7    .0
 00785    597.7    -158.7    .0
 00802    594.7    -158.5    .0
 00819    591.7    -158.7    .0
 00834    589.1    -158.3    .0
 00852    585.9    -158.6    .0
 00870    582.7    -158.3    .0
 00887    579.7    -158.3    .0
 00905    576.5    -158.3    .0
 00923    573.3    -158.1    .0
 00940    570.2    -158.2    .0
 00956    567.4    -158.0    .0
 00972    564.5    -157.8    .0
 00991    561.1    -157.6    .0
 01008    558.0    -156.9    .0
 01025    554.8    -155.3    .0
 01042    551.6    -151.9    .0
 01060    548.4    -147.1    .0
 01075    545.6    -138.4    .0
 01092    542.4    -126.2    .0
 01111    539.0    -112.8    .0
 01126    536.1    -97.6    .0
 01144    532.8    -84.6    .0
 01162    529.3    -77.3    .0
 01178    526.4    -72.3    .0
 01195    523.1    -69.5    .0
 01214    519.6    -67.9    .0
 01229    516.7    -66.1    .0
 01246    513.4    -64.7    .0
 01265    509.9    -63.1    .0
 01282    506.7    -61.5    .0
 01300    503.2    -59.6    .0
 01317    499.9    -57.3    .0
 01334    496.6    -54.6    .0
 01352    493.2    -51.4    .0
 01370    489.7    -48.2    .0
 01385    486.8    -44.2    .0
 01402    483.4    -40.6    .0
 01421    479.9    -36.7    .0
 01438    476.5    -32.9    .0
 01457    472.9    -29.8    .0
 01472    469.9    -27.0    .0
 01487    466.8    -24.2    .0
 01505    463.4    -22.3    .0
 01523    459.9    -20.7    .0
 01540    456.5    -19.7    .0
 01558    453.1    -19.0    .0
 01575    449.6    -18.7    .0
 01592    446.2    -18.8    .0
 01610    442.7    -18.9    .0
 01626    439.6    -19.2    .0
 01641    436.6    -19.5    .0
 01659    433.1    -20.1    .0
 01677    429.5    -20.6    .0
 01692    426.4    -20.9    .0
 01707    423.4    -21.5    .0
 01725    419.9    -22.1    .0
 01741    416.8    -22.4    .0
 01756    413.8    -23.1    .0
 01774    410.1    -23.5    .0
 01791    406.9    -24.0    .0
 01806    403.8    -24.4    .0
 01821    400.8    -24.9    .0
 01840    397.1    -25.6    .0
 01855    394.1    -25.9    .0
 01873    390.4    -26.4    .0
 01891    386.8    -26.8    .0
 01909    383.4    -27.4    .0
 01927    379.7    -27.7    .0
 01942    376.7    -28.0    .0
 01959    373.3    -28.7    .0
 01977    369.6    -29.0    .0
 01992    366.6    -29.1    .0
 02008    363.5    -29.7    .0
 02027    359.8    -29.9    .0
 02041    356.9    -30.3    .0
 02057    353.8    -30.6    .0
 02072    350.8    -30.8    .0
 02087    347.7    -31.1    .0
 02105    344.2    -31.4    .0
 02122    340.7    -31.7    .0
 02138    337.7    -31.8    .0
 02154    334.4    -32.3    .0
 02173    330.8    -32.5    .0
 02189    327.6    -32.9    .0
 02206    324.1    -33.1    .0
 02223    320.8    -33.3    .0
 02239    317.7    -33.6    .0
 02256    314.3    -33.9    .0
 02271    311.3    -34.1    .0
 02286    308.3    -34.4    .0
 02302    305.3    -34.5    .0
 02318    302.2    -34.9    .0
 02335    298.8    -35.3    .0
 02351    295.7    -35.2    .0
 02366    292.8    -35.5    .0
 02384    289.2    -35.8    .0
 02401    285.9    -36.1    .0
 02417    282.8    -36.2    .0
 02435    279.3    -36.6    .0
 02453    275.8    -36.8    .0
 02469    272.8    -36.8    .0
 02486    269.4    -37.2    .0
 02501    266.5    -37.2    .0
 02517    263.5    -37.6    .0
 02535    260.0    -37.8    .0
 02550    257.2    -37.9    .0
 02566    254.1    -38.1    .0
 02583    250.8    -38.3    .0
 02601    247.5    -38.5    .0
 02616    244.6    -38.4    .0
 02632    241.6    -38.8    .0
 02649    238.3    -39.1    .0
 02664    235.5    -39.0    .0
 02679    232.7    -39.3    .0
 02697    229.3    -39.4    .0
 02712    226.5    -39.6    .0
 02730    223.3    -39.7    .0
 02747    220.0    -39.9    .0
 02765    216.8    -40.1    .0
 02782    213.6    -40.0    .0
 02798    210.8    -40.4    .0
 02813    208.0    -40.5    .0
 02830    204.9    -40.8    .0
 02848    201.6    -40.7    .0
 02863    198.9    -41.0    .0
 02881    195.6    -41.1    .0
 02896    192.9    -41.1    .0
 02913    189.8    -41.4    .0
 02929    187.0    -41.4    .0
 02945    184.2    -41.4    .0
 02963    180.9    -41.5    .0
 02979    178.2    -41.7    .0
 02994    175.5    -41.5    .0
 03010    172.7    -41.8    .0
 03028    169.5    -41.8    .0
 03043    166.9    -41.9    .0
 03061    163.9    -41.9    .0
 03076    161.2    -41.9    .0
 03091    158.7    -42.0    .0
 03106    156.1    -42.0    .0
 03121    153.6    -41.9    .0
 03137    150.9    -42.1    .0
 03154    148.0    -42.1    .0
 03172    145.1    -42.0    .0
 03187    142.6    -42.0    .0
 03204    139.7    -41.9    .0
 03220    137.1    -41.9    .0
 03237    134.3    -41.9    .0
 03252    131.8    -41.7    .0
 03268    129.2    -41.7    .0
 03286    126.3    -41.5    .0
 03301    123.9    -41.5    .0
 03319    121.0    -41.4    .0
 03334    118.7    -41.3    .0
 03352    115.9    -41.4    .0
 03367    113.5    -41.3    .0
 03384    110.8    -41.3    .0
 03400    108.4    -41.1    .0
 03416    106.0    -41.3    .0
 03434    103.2    -41.1    .0
 03449    101.0    -41.2    .0
 03466    98.3    -41.2    .0
 03481    96.1    -41.3    .0
 03499    93.4    -41.3    .0
 03514    91.3    -41.3    .0
 03532    88.7    -41.3    .0
 03547    86.5    -41.4    .0
 03562    84.3    -41.3    .0
 03579    81.9    -41.5    .0
 03597    79.3    -41.4    .0
 03612    77.3    -41.5    .0
 03630    74.7    -41.4    .0
 03645    72.7    -41.6    .0
 03663    70.2    -41.5    .0
 03678    68.1    -41.7    .0
 03696    65.7    -41.6    .0
 03711    63.7    -41.7    .0
 03730    61.2    -41.7    .0
 03746    59.1    -41.8    .0
 03761    57.1    -41.8    .0
 03776    55.2    -41.8    .0
 03792    53.2    -41.8    .0
 03807    51.2    -41.9    .0
 03823    49.3    -41.9    .0
