time temp susc csusc
 0             0             0             0             0            no
 00000    39.3    -155.1   .0
 00020    42.2    -154.6   .0
 00039    44.8    -155.1   .0
 00057    47.6    -154.8   .0
 00076    50.3    -155.0   .0
 00094    53.0    -154.9   .0
 00112    55.7    -155.0   .0
 00130    58.4    -154.9   .0
 00146    60.8    -155.1   .0
 00164    63.5    -154.9   .0
 00180    65.9    -155.0   .0
 00197    68.6    -154.9   .0
 00212    71.0    -155.0   .0
 00230    73.7    -154.9   .0
 00246    76.2    -155.1   .0
 00264    79.0    -154.9   .0
 00282    81.9    -155.0   .0
 00300    84.8    -154.9   .0
 00317    87.6    -155.0   .0
 00336    90.5    -155.0   .0
 00353    93.4    -155.0   .0
 00371    96.4    -155.0   .0
 00389    99.2    -155.2   .0
 00407    102.3    -154.9   .0
 00425    105.3    -155.2   .0
 00443    108.3    -155.0   .0
 00462    111.4    -155.1   .0
 00480    114.5    -155.0   .0
 00498    117.6    -155.2   .0
 00516    120.6    -155.0   .0
 00531    123.2    -155.2   .0
 00549    126.3    -155.1   .0
 00567    129.4    -155.2   .0
 00585    132.6    -155.1   .0
 00603    135.8    -155.2   .0
 00622    139.0    -155.1   .0
 00640    142.2    -155.3   .0
 00658    145.4    -155.1   .0
 00676    148.6    -155.1   .0
 00694    151.9    -155.1   .0
 00712    155.0    -155.3   .0
 00730    158.3    -155.2   .0
 00747    161.4    -155.4   .0
 00766    164.7    -155.2   .0
 00782    167.7    -155.3   .0
 00800    170.9    -155.2   .0
 00817    174.1    -155.3   .0
 00834    177.3    -155.2   .0
 00849    180.0    -155.3   .0
 00867    183.2    -155.2   .0
 00882    186.1    -155.2   .0
 00897    188.9    -155.3   .0
 00912    191.7    -155.2   .0
 00928    194.6    -155.1   .0
 00946    198.0    -155.1   .0
 00962    201.1    -155.4   .0
 00979    204.3    -155.2   .0
 00995    207.2    -155.3   .0
 01013    210.6    -155.1   .0
 01030    214.0    -155.5   .0
 01049    217.4    -155.2   .0
 01066    220.8    -155.3   .0
 01084    224.2    -155.2   .0
 01101    227.4    -155.1   .0
 01118    230.7    -155.2   .0
 01132    233.5    -155.3   .0
 01150    236.8    -154.8   .0
 01165    239.8    -155.3   .0
 01183    243.2    -155.3   .0
 01197    246.0    -155.2   .0
 01213    249.0    -155.1   .0
 01228    252.0    -155.6   .0
 01247    255.7    -155.3   .0
 01263    258.8    -155.5   .0
 01280    262.3    -155.3   .0
 01298    265.8    -155.3   .0
 01316    269.3    -155.2   .0
 01334    272.8    -155.5   .0
 01352    276.4    -155.2   .0
 01367    279.4    -155.6   .0
 01386    283.0    -155.3   .0
 01400    285.9    -155.4   .0
 01417    289.2    -155.5   .0
 01433    292.3    -155.7   .0
 01447    295.2    -155.5   .0
 01463    298.3    -155.6   .0
 01478    301.3    -155.5   .0
 01493    304.2    -155.5   .0
 01511    307.9    -155.5   .0
 01527    311.0    -155.4   .0
 01542    314.1    -155.5   .0
 01559    317.5    -155.6   .0
 01575    320.7    -155.5   .0
 01590    323.7    -155.4   .0
 01605    326.7    -155.5   .0
 01623    330.3    -155.6   .0
 01638    333.3    -155.3   .0
 01656    336.8    -155.4   .0
 01674    340.5    -155.2   .0
 01692    344.1    -155.4   .0
 01711    347.8    -155.3   .0
 01726    350.9    -155.5   .0
 01744    354.6    -155.4   .0
 01760    357.8    -155.5   .0
 01778    361.4    -155.5   .0
 01795    364.6    -155.4   .0
 01812    368.2    -155.5   .0
 01830    371.8    -155.5   .0
 01845    374.7    -155.6   .0
 01862    378.3    -155.6   .0
 01879    381.5    -155.8   .0
 01896    385.1    -155.8   .0
 01912    388.2    -156.0   .0
 01928    391.4    -156.1   .0
 01945    394.9    -156.0   .0
 01961    398.0    -156.3   .0
 01978    401.5    -156.5   .0
 01993    404.6    -156.5   .0
 02010    407.8    -156.7   .0
 02026    411.2    -156.8   .0
 02044    414.6    -157.1   .0
 02058    417.5    -156.9   .0
 02077    421.2    -157.3   .0
 02095    424.9    -157.1   .0
 02111    428.0    -157.5   .0
 02128    431.5    -157.2   .0
 02146    435.0    -157.5   .0
 02164    438.6    -157.3   .0
 02182    442.2    -157.5   .0
 02200    445.8    -157.4   .0
 02218    449.3    -157.5   .0
 02236    452.9    -157.5   .0
 02252    455.9    -157.4   .0
 02270    459.5    -157.5   .0
 02284    462.4    -157.3   .0
 02299    465.3    -157.5   .0
 02314    468.2    -157.5   .0
 02330    471.4    -157.5   .0
 02345    474.3    -157.5   .0
 02363    477.8    -157.4   .0
 02379    480.9    -157.6   .0
 02397    484.4    -157.4   .0
 02412    487.4    -157.6   .0
 02430    490.9    -157.5   .0
 02447    494.1    -157.7   .0
 02462    497.0    -157.6   .0
 02479    500.4    -157.6   .0
 02497    503.9    -157.7   .0
 02514    507.0    -157.6   .0
 02530    510.2    -157.8   .0
 02545    513.0    -157.6   .0
 02561    516.0    -157.7   .0
 02579    519.4    -157.5   .0
 02595    522.4    -158.0   .0
 02612    525.8    -157.8   .0
 02629    529.0    -157.8   .0
 02644    531.8    -157.8   .0
 02659    534.6    -157.8   .0
 02674    537.3    -157.9   .0
 02691    540.7    -157.9   .0
 02709    543.9    -157.9   .0
 02726    547.1    -158.1   .0
 02743    550.3    -158.1   .0
 02758    553.0    -158.1   .0
 02773    555.7    -158.0   .0
 02789    558.8    -158.2   .0
 02808    562.2    -158.2   .0
 02823    565.0    -158.3   .0
 02840    568.1    -158.4   .0
 02855    570.8    -158.4   .0
 02871    573.6    -158.4   .0
 02889    576.9    -158.4   .0
 02907    580.1    -158.5   .0
 02923    583.0    -158.5   .0
 02940    586.1    -158.5   .0
 02957    589.1    -158.6   .0
 02974    592.1    -158.5   .0
 02991    595.1    -158.6   .0
 03008    598.0    -158.5   .0
 03024    600.8    -158.9   .0
 03042    604.0    -158.6   .0
 03057    606.5    -158.5   .0
 03074    609.6    -158.8   .0
 03093    612.7    -158.5   .0
 03110    615.8    -159.0   .0
 03128    618.8    -158.8   .0
 03145    621.6    -158.7   .0
 03162    624.6    -158.8   .0
 03177    627.1    -158.8   .0
 03192    629.5    -158.8   .0
 03209    632.4    -159.0   .0
 03227    635.3    -158.8   .0
 03242    637.8    -158.8   .0
 03260    640.7    -158.8   .0
 03278    643.7    -158.9   .0
 03295    646.4    -159.1   .0
 03310    648.8    -158.8   .0
 03324    651.1    -159.1   .0
 03342    654.0    -158.9   .0
 03360    656.8    -158.9   .0
 03377    659.5    -158.9   .0
 03394    662.1    -158.9   .0
 03411    664.8    -159.1   .0
 03429    667.5    -158.8   .0
 03445    670.0    -159.1   .0
 03463    672.7    -159.0   .0
 03480    675.3    -159.2   .0
 03496    677.8    -159.1   .0
 03512    680.1    -158.9   .0
 03530    682.7    -159.1   .0
 03548    685.4    -158.9   .0
 03565    687.9    -159.1   .0
 03583    690.5    -159.3   .0
 00005    691.0    -158.9    .0
 00018    692.5    -158.4    .0
 00036    694.4    -159.2    .0
 00051    696.2    -158.9    .0
 00069    698.4    -159.3    .0
 00087    700.8    -159.0    .0
 00102    702.3    -159.4    .0
 00118    700.0    -159.0    .0
 00136    697.6    -158.8    .0
 00154    695.3    -159.1    .0
 00171    692.9    -158.9    .0
 00189    690.4    -159.0    .0
 00207    687.9    -159.0    .0
 00223    685.7    -159.2    .0
 00238    683.6    -159.1    .0
 00255    681.1    -158.7    .0
 00273    678.5    -159.0    .0
 00290    676.1    -159.1    .0
 00307    673.5    -158.8    .0
 00325    670.9    -158.9    .0
 00342    668.4    -159.0    .0
 00356    666.2    -158.8    .0
 00371    664.0    -158.7    .0
 00388    661.4    -158.8    .0
 00407    658.7    -158.8    .0
 00423    656.1    -159.0    .0
 00440    653.4    -158.8    .0
 00458    650.7    -158.8    .0
 00474    648.1    -158.8    .0
 00492    645.3    -158.9    .0
 00509    642.7    -159.1    .0
 00523    640.3    -158.7    .0
 00539    637.8    -158.8    .0
 00558    634.8    -158.9    .0
 00575    632.0    -158.7    .0
 00592    629.3    -158.7    .0
 00610    626.3    -158.7    .0
 00627    623.5    -158.8    .0
 00643    620.7    -158.9    .0
 00661    617.9    -158.8    .0
 00679    614.9    -158.7    .0
 00695    612.1    -158.4    .0
 00713    609.1    -158.6    .0
 00731    606.0    -158.6    .0
 00748    603.1    -158.6    .0
 00765    600.1    -158.6    .0
 00783    597.1    -158.5    .0
 00800    594.1    -158.9    .0
 00817    591.0    -158.5    .0
 00835    588.0    -159.0    .0
 00852    585.0    -158.4    .0
 00868    582.1    -158.2    .0
 00883    579.5    -158.1    .0
 00900    576.4    -158.3    .0
 00917    573.3    -158.1    .0
 00935    570.1    -158.2    .0
 00950    567.5    -157.8    .0
 00966    564.6    -157.7    .0
 00984    561.2    -157.6    .0
 01002    558.0    -157.4    .0
 01019    554.9    -157.6    .0
 01036    551.7    -157.0    .0
 01053    548.6    -156.7    .0
 01071    545.3    -156.4    .0
 01089    542.0    -156.5    .0
 01105    539.0    -156.0    .0
 01123    535.7    -155.9    .0
 01140    532.5    -155.6    .0
 01155    529.7    -155.3    .0
 01170    526.7    -155.2    .0
 01189    523.3    -155.8    .0
 01207    519.9    -154.9    .0
 01224    516.7    -154.9    .0
 01242    513.3    -154.9    .0
 01257    510.4    -154.9    .0
 01275    506.8    -154.5    .0
 01294    503.3    -154.3    .0
 01310    500.1    -154.4    .0
 01327    497.0    -154.4    .0
 01344    493.7    -154.2    .0
 01362    490.2    -154.1    .0
 01377    487.2    -154.1    .0
 01395    483.8    -153.9    .0
 01412    480.5    -153.7    .0
 01429    477.1    -153.9    .0
 01447    473.6    -153.7    .0
 01464    470.4    -153.8    .0
 01478    467.5    -153.4    .0
 01497    463.9    -153.6    .0
 01515    460.4    -153.3    .0
 01533    456.7    -153.4    .0
 01552    453.1    -153.4    .0
 01566    450.3    -153.2    .0
 01583    447.0    -153.3    .0
 01601    443.5    -153.2    .0
 01618    440.1    -153.1    .0
 01634    436.8    -153.2    .0
 01650    433.8    -153.0    .0
 01664    430.9    -153.0    .0
 01683    427.3    -152.8    .0
 01700    423.7    -153.1    .0
 01718    420.2    -152.8    .0
 01733    417.2    -152.7    .0
 01749    414.0    -153.0    .0
 01767    410.4    -152.7    .0
 01783    407.3    -152.6    .0
 01800    403.8    -152.7    .0
 01818    400.3    -152.6    .0
 01833    397.3    -152.6    .0
 01849    394.2    -152.5    .0
 01867    390.6    -152.5    .0
 01884    387.2    -152.5    .0
 01902    383.6    -152.5    .0
 01919    380.3    -152.4    .0
 01933    377.4    -152.5    .0
 01949    374.1    -152.5    .0
 01967    370.6    -152.3    .0
 01983    367.4    -152.4    .0
 02001    363.8    -152.2    .0
 02016    360.9    -152.3    .0
 02031    357.8    -152.4    .0
 02049    354.3    -152.3    .0
 02065    351.1    -152.2    .0
 02083    347.6    -152.3    .0
 02100    344.1    -152.2    .0
 02116    341.0    -152.2    .0
 02134    337.4    -152.4    .0
 02149    334.5    -152.1    .0
 02166    331.0    -152.2    .0
 02185    327.3    -152.0    .0
 02200    324.3    -152.1    .0
 02217    320.9    -152.2    .0
 02235    317.4    -152.2    .0
 02253    313.9    -152.3    .0
 02270    310.5    -152.2    .0
 02286    307.4    -152.3    .0
 02304    303.8    -152.3    .0
 02322    300.3    -152.2    .0
 02340    296.8    -152.3    .0
 02357    293.3    -152.1    .0
 02372    290.5    -152.6    .0
 02388    287.4    -153.0    .0
 02406    283.9    -153.0    .0
 02421    281.0    -153.1    .0
 02438    277.7    -153.3    .0
 02453    274.8    -153.0    .0
 02470    271.6    -153.3    .0
 02488    268.0    -153.0    .0
 02503    265.2    -153.3    .0
 02520    261.8    -153.3    .0
 02535    259.0    -153.4    .0
 02553    255.6    -153.3    .0
 02571    252.1    -153.2    .0
 02589    248.6    -153.3    .0
 02608    245.2    -153.5    .0
 02622    242.4    -153.3    .0
 02638    239.3    -153.6    .0
 02656    236.1    -153.3    .0
 02671    233.3    -153.3    .0
 02688    230.0    -153.7    .0
 02703    227.3    -153.4    .0
 02717    224.6    -153.4    .0
 02732    221.9    -153.4    .0
 02747    219.0    -153.4    .0
 02762    216.2    -153.3    .0
 02780    213.0    -153.3    .0
 02798    209.7    -153.4    .0
 02812    207.0    -153.3    .0
 02830    203.9    -153.4    .0
 02847    200.8    -153.4    .0
 02864    197.7    -153.5    .0
 02882    194.5    -153.6    .0
 02898    191.6    -153.4    .0
 02914    188.7    -153.5    .0
 02932    185.5    -153.6    .0
 02947    182.8    -153.7    .0
 02965    179.7    -153.5    .0
 02980    177.0    -153.5    .0
 02998    173.8    -153.5    .0
 03014    171.1    -153.5    .0
 03031    168.0    -153.6    .0
 03048    165.1    -153.6    .0
 03063    162.6    -153.4    .0
 03081    159.5    -153.7    .0
 03099    156.3    -153.4    .0
 03117    153.3    -153.6    .0
 03136    150.2    -153.9    .0
 03153    147.3    -153.6    .0
 03169    144.7    -153.9    .0
 03186    141.7    -153.7    .0
 03202    139.1    -153.7    .0
 03220    136.2    -153.7    .0
 03236    133.5    -153.7    .0
 03254    130.6    -153.9    .0
 03270    128.0    -153.8    .0
 03285    125.7    -153.6    .0
 03300    123.2    -153.8    .0
 03318    120.3    -153.6    .0
 03336    117.5    -153.9    .0
 03355    114.6    -153.8    .0
 03369    112.3    -154.0    .0
 03384    110.1    -153.7    .0
 03400    107.6    -153.8    .0
 03418    104.8    -153.8    .0
 03433    102.4    -154.1    .0
 03452    99.7    -153.8    .0
 03466    97.5    -153.9    .0
 03485    94.7    -153.7    .0
 03500    92.4    -154.0    .0
 03519    89.8    -153.8    .0
 03537    87.1    -153.9    .0
 03555    84.5    -153.9    .0
 03572    82.0    -153.9    .0
 03590    79.5    -153.8    .0
 03606    77.3    -153.9    .0
 03623    74.8    -153.9    .0
 03641    72.4    -153.9    .0
 03658    70.1    -153.8    .0
 03675    67.7    -154.0    .0
 03693    65.3    -153.8    .0
 03711    62.9    -154.1    .0
 03729    60.5    -153.9    .0
 03747    58.2    -153.9    .0
 03765    55.9    -153.8    .0
 03780    54.0    -154.0    .0
 03798    51.7    -153.9    .0
 03812    49.9    -153.9    .0
