time temp susc csusc
 0             0             0             0             0            no
 00000    39.3    -157.1   .0
 00020    42.1    -157.0   .0
 00039    44.8    -157.2   .0
 00057    47.5    -157.1   .0
 00074    50.0    -157.1   .0
 00092    52.7    -157.3   .0
 00108    55.0    -157.2   .0
 00122    57.2    -157.2   .0
 00140    59.8    -157.4   .0
 00155    62.1    -157.2   .0
 00171    64.6    -157.5   .0
 00189    67.3    -157.2   .0
 00203    69.6    -157.3   .0
 00221    72.3    -157.3   .0
 00236    74.7    -157.3   .0
 00252    77.1    -157.3   .0
 00267    79.6    -157.5   .0
 00286    82.5    -157.5   .0
 00303    85.4    -157.5   .0
 00321    88.2    -157.4   .0
 00336    90.5    -157.5   .0
 00354    93.5    -157.3   .0
 00371    96.3    -157.5   .0
 00389    99.3    -157.3   .0
 00404    101.8    -157.4   .0
 00423    104.9    -157.3   .0
 00438    107.4    -157.4   .0
 00456    110.5    -157.4   .0
 00473    113.3    -157.4   .0
 00491    116.4    -157.4   .0
 00507    119.1    -157.6   .0
 00525    122.2    -157.5   .0
 00541    125.0    -157.5   .0
 00557    127.6    -157.4   .0
 00572    130.2    -157.5   .0
 00587    132.9    -157.4   .0
 00605    136.1    -157.5   .0
 00622    139.0    -157.5   .0
 00639    142.1    -157.5   .0
 00655    144.8    -157.6   .0
 00673    148.0    -157.4   .0
 00688    150.7    -157.6   .0
 00706    154.0    -157.4   .0
 00722    156.8    -157.4   .0
 00740    160.1    -157.6   .0
 00756    163.0    -157.6   .0
 00772    165.8    -157.4   .0
 00787    168.6    -157.5   .0
 00804    171.8    -157.6   .0
 00822    175.1    -157.5   .0
 00838    177.9    -157.4   .0
 00856    181.3    -157.6   .0
 00872    184.3    -157.6   .0
 00890    187.6    -157.6   .0
 00905    190.3    -157.7   .0
 00922    193.4    -157.6   .0
 00939    196.8    -157.7   .0
 00957    200.1    -157.6   .0
 00973    203.0    -157.6   .0
 00988    205.9    -157.6   .0
 01002    208.6    -157.7   .0
 01021    212.1    -157.6   .0
 01036    215.1    -157.8   .0
 01054    218.4    -157.6   .0
 01069    221.2    -157.5   .0
 01085    224.3    -157.7   .0
 01103    227.8    -157.4   .0
 01118    230.7    -157.5   .0
 01136    234.3    -157.5   .0
 01153    237.4    -157.6   .0
 01171    240.9    -157.6   .0
 01186    243.9    -157.5   .0
 01205    247.4    -157.6   .0
 01220    250.5    -157.6   .0
 01238    254.0    -157.6   .0
 01254    257.1    -157.7   .0
 01269    260.1    -157.6   .0
 01284    263.0    -157.7   .0
 01302    266.6    -157.7   .0
 01317    269.5    -157.6   .0
 01334    272.8    -157.8   .0
 01349    275.8    -157.5   .0
 01365    278.8    -157.7   .0
 01383    282.4    -157.6   .0
 01398    285.4    -157.5   .0
 01416    289.0    -158.1   .0
 01433    292.3    -157.7   .0
 01448    295.3    -157.7   .0
 01465    298.7    -157.8   .0
 01480    301.7    -157.6   .0
 01498    305.2    -157.8   .0
 01516    308.8    -157.4   .0
 01533    312.3    -157.6   .0
 01551    315.9    -157.3   .0
 01570    319.6    -157.5   .0
 01589    323.3    -157.4   .0
 01604    326.4    -157.4   .0
 01619    329.4    -157.2   .0
 01634    332.4    -157.3   .0
 01651    335.9    -157.2   .0
 01666    338.8    -157.2   .0
 01681    341.8    -157.2   .0
 01696    344.8    -157.1   .0
 01711    347.9    -157.3   .0
 01729    351.6    -157.0   .0
 01747    355.1    -157.2   .0
 01765    358.7    -157.1   .0
 01783    362.3    -157.2   .0
 01801    365.9    -157.2   .0
 01816    369.0    -157.2   .0
 01834    372.5    -157.3   .0
 01848    375.5    -157.1   .0
 01863    378.5    -157.2   .0
 01881    382.1    -157.3   .0
 01897    385.1    -157.1   .0
 01915    388.8    -157.5   .0
 01930    391.8    -157.3   .0
 01944    394.7    -157.5   .0
 01963    398.4    -157.6   .0
 01977    401.4    -157.6   .0
 01992    404.3    -157.7   .0
 02007    407.2    -157.7   .0
 02025    410.8    -157.7   .0
 02040    413.8    -157.8   .0
 02057    417.3    -157.7   .0
 02074    420.6    -158.0   .0
 02089    423.7    -157.9   .0
 02106    427.1    -157.9   .0
 02124    430.5    -157.9   .0
 02138    433.5    -157.8   .0
 02156    436.9    -158.0   .0
 02173    440.4    -157.9   .0
 02188    443.4    -158.0   .0
 02206    446.9    -158.1   .0
 02223    450.2    -158.2   .0
 02237    453.1    -158.1   .0
 02252    456.0    -158.1   .0
 02270    459.6    -158.3   .0
 02285    462.4    -158.2   .0
 02302    465.9    -158.3   .0
 02321    469.5    -158.1   .0
 02338    472.9    -158.3   .0
 02356    476.5    -158.2   .0
 02372    479.6    -158.1   .0
 02390    483.1    -158.3   .0
 02405    485.9    -158.1   .0
 02420    489.0    -158.2   .0
 02439    492.6    -158.4   .0
 02456    495.9    -158.2   .0
 02471    498.7    -158.4   .0
 02489    502.2    -158.3   .0
 02504    505.2    -158.4   .0
 02522    508.7    -158.5   .0
 02538    511.6    -158.4   .0
 02554    514.7    -158.5   .0
 02569    517.6    -158.6   .0
 02585    520.7    -158.4   .0
 02603    524.0    -158.5   .0
 02620    527.3    -158.7   .0
 02635    530.1    -158.8   .0
 02653    533.5    -158.6   .0
 02671    536.8    -158.4   .0
 02688    540.1    -158.7   .0
 02703    542.8    -158.6   .0
 02719    545.8    -158.8   .0
 02738    549.3    -158.6   .0
 02753    552.1    -158.8   .0
 02771    555.4    -158.9   .0
 02788    558.5    -158.7   .0
 02803    561.3    -158.9   .0
 02821    564.6    -159.0   .0
 02836    567.3    -158.8   .0
 02852    570.2    -158.9   .0
 02870    573.4    -158.8   .0
 02887    576.6    -158.9   .0
 02905    579.8    -158.9   .0
 02922    582.8    -158.9   .0
 02940    586.0    -159.0   .0
 02956    588.9    -159.0   .0
 02971    591.5    -158.8   .0
 02988    594.6    -158.9   .0
 03007    597.9    -159.0   .0
 03023    600.7    -159.2   .0
 03042    603.9    -159.0   .0
 03058    606.7    -159.1   .0
 03074    609.5    -159.1   .0
 03091    612.5    -159.1   .0
 03109    615.5    -159.1   .0
 03127    618.6    -159.3   .0
 03141    621.0    -158.9   .0
 03159    624.1    -159.1   .0
 03178    627.1    -159.2   .0
 03196    630.1    -159.2   .0
 03213    633.1    -159.1   .0
 03230    635.8    -159.3   .0
 03248    638.7    -159.2   .0
 03262    641.1    -159.1   .0
 03278    643.7    -159.3   .0
 03297    646.7    -159.3   .0
 03314    649.5    -159.1   .0
 03331    652.3    -159.3   .0
 03349    655.1    -159.0   .0
 03367    657.9    -159.4   .0
 03385    660.7    -159.4   .0
 03402    663.3    -159.7   .0
 03419    666.0    -159.5   .0
 03436    668.7    -159.3   .0
 03454    671.4    -159.6   .0
 03470    673.8    -159.5   .0
 03488    676.5    -159.3   .0
 03505    679.0    -159.6   .0
 03522    681.7    -159.5   .0
 03539    684.1    -159.5   .0
 03556    686.6    -159.4   .0
 03574    689.2    -159.4   .0
 03591    691.7    -159.5   .0
 00005    692.2    -159.1    .0
 00018    693.6    -159.5    .0
 00036    695.6    -159.7    .0
 00053    697.6    -159.3    .0
 00070    699.7    -159.5    .0
 00088    702.0    -159.6    .0
 00104    703.0    -159.5    .0
 00119    701.0    -159.2    .0
 00136    698.8    -159.2    .0
 00155    696.2    -159.4    .0
 00172    693.9    -159.3    .0
 00189    691.5    -159.4    .0
 00207    689.1    -159.2    .0
 00224    686.6    -159.8    .0
 00242    684.1    -159.9    .0
 00258    681.9    -159.3    .0
 00275    679.3    -159.1    .0
 00293    676.8    -159.5    .0
 00311    674.2    -159.9    .0
 00327    671.8    -159.3    .0
 00344    669.3    -159.2    .0
 00362    666.7    -159.5    .0
 00380    664.0    -159.4    .0
 00394    661.8    -159.1    .0
 00410    659.4    -159.3    .0
 00428    656.5    -158.9    .0
 00446    653.9    -159.7    .0
 00461    651.5    -159.2    .0
 00475    649.3    -159.1    .0
 00493    646.4    -159.3    .0
 00511    643.6    -159.2    .0
 00528    640.9    -159.1    .0
 00545    638.1    -159.0    .0
 00563    635.2    -159.2    .0
 00578    632.8    -159.0    .0
 00597    629.8    -159.1    .0
 00615    626.8    -159.3    .0
 00629    624.4    -158.9    .0
 00648    621.3    -159.2    .0
 00667    618.2    -159.1    .0
 00684    615.2    -159.0    .0
 00702    612.2    -159.0    .0
 00718    609.5    -158.8    .0
 00736    606.6    -158.9    .0
 00754    603.5    -158.9    .0
 00771    600.4    -158.9    .0
 00788    597.5    -158.8    .0
 00805    594.5    -158.7    .0
 00823    591.5    -158.8    .0
 00841    588.4    -158.8    .0
 00858    585.3    -159.0    .0
 00873    582.7    -158.7    .0
 00888    579.9    -158.9    .0
 00907    576.7    -158.9    .0
 00923    573.7    -158.8    .0
 00941    570.6    -158.8    .0
 00955    567.9    -158.5    .0
 00972    564.9    -158.9    .0
 00990    561.6    -158.6    .0
 01005    558.9    -157.8    .0
 01023    555.6    -158.6    .0
 01041    552.3    -158.4    .0
 01058    549.2    -158.3    .0
 01076    545.9    -158.0    .0
 01093    542.7    -158.1    .0
 01111    539.4    -158.1    .0
 01127    536.4    -157.9    .0
 01144    533.2    -157.7    .0
 01161    530.0    -157.4    .0
 01178    526.8    -157.5    .0
 01195    523.6    -157.6    .0
 01212    520.3    -157.5    .0
 01230    517.0    -157.4    .0
 01248    513.7    -157.5    .0
 01262    510.9    -157.2    .0
 01278    507.9    -157.3    .0
 01296    504.4    -157.1    .0
 01313    501.2    -157.3    .0
 01331    497.8    -157.0    .0
 01348    494.4    -157.0    .0
 01366    491.0    -156.8    .0
 01384    487.5    -156.8    .0
 01401    484.1    -156.8    .0
 01419    480.8    -156.7    .0
 01436    477.4    -156.7    .0
 01454    473.9    -156.8    .0
 01469    471.0    -156.6    .0
 01485    467.9    -156.5    .0
 01503    464.2    -156.2    .0
 01521    460.7    -156.5    .0
 01539    457.3    -156.3    .0
 01556    453.9    -156.4    .0
 01574    450.4    -156.2    .0
 01591    446.9    -156.1    .0
 01608    443.6    -156.1    .0
 01626    440.1    -156.2    .0
 01640    437.2    -155.9    .0
 01658    433.7    -155.9    .0
 01677    430.1    -156.0    .0
 01691    427.2    -155.7    .0
 01708    423.7    -155.8    .0
 01727    420.1    -155.9    .0
 01743    416.8    -155.9    .0
 01758    413.8    -155.7    .0
 01774    410.8    -155.7    .0
 01792    407.1    -155.7    .0
 01810    403.6    -155.4    .0
 01827    400.2    -155.6    .0
 01844    396.7    -155.5    .0
 01861    393.3    -155.4    .0
 01879    389.8    -155.4    .0
 01896    386.4    -155.3    .0
 01913    383.0    -155.4    .0
 01931    379.5    -155.4    .0
 01946    376.4    -155.7    .0
 01961    373.4    -155.2    .0
 01977    370.3    -155.2    .0
 01995    366.7    -155.2    .0
 02012    363.1    -154.9    .0
 02030    359.7    -155.2    .0
 02047    356.3    -155.2    .0
 02062    353.3    -155.2    .0
 02079    349.9    -155.3    .0
 02096    346.6    -155.2    .0
 02114    343.0    -155.1    .0
 02129    340.0    -155.1    .0
 02146    336.6    -155.5    .0
 02164    333.1    -154.7    .0
 02178    330.2    -154.9    .0
 02194    327.1    -155.1    .0
 02212    323.4    -154.8    .0
 02228    320.3    -154.8    .0
 02246    316.7    -154.8    .0
 02262    313.7    -154.8    .0
 02279    310.4    -155.1    .0
 02297    306.7    -155.0    .0
 02312    303.8    -155.0    .0
 02330    300.3    -154.9    .0
 02347    296.9    -154.9    .0
 02364    293.6    -155.0    .0
 02381    290.2    -154.8    .0
 02396    287.4    -155.1    .0
 02411    284.6    -155.0    .0
 02426    281.6    -154.9    .0
 02443    278.2    -155.1    .0
 02462    274.7    -154.9    .0
 02478    271.5    -155.0    .0
 02496    268.1    -155.1    .0
 02513    264.7    -154.9    .0
 02530    261.5    -155.1    .0
 02548    258.1    -155.0    .0
 02565    254.9    -155.0    .0
 02582    251.6    -155.1    .0
 02600    248.2    -155.1    .0
 02615    245.2    -155.1    .0
 02631    242.3    -155.1    .0
 02646    239.4    -155.0    .0
 02661    236.7    -155.2    .0
 02677    233.5    -155.1    .0
 02695    230.3    -155.1    .0
 02713    227.0    -155.2    .0
 02729    223.9    -155.2    .0
 02746    220.8    -155.1    .0
 02762    217.7    -155.2    .0
 02780    214.5    -155.1    .0
 02797    211.4    -155.2    .0
 02814    208.3    -155.1    .0
 02831    205.2    -155.1    .0
 02848    202.1    -155.3    .0
 02865    198.9    -155.1    .0
 02881    196.0    -155.2    .0
 02899    192.8    -155.1    .0
 02914    190.0    -155.2    .0
 02929    187.4    -155.1    .0
 02945    184.7    -155.2    .0
 02963    181.4    -155.2    .0
 02978    178.8    -155.2    .0
 02996    175.6    -155.2    .0
 03012    172.7    -155.2    .0
 03027    170.1    -155.0    .0
 03043    167.5    -155.2    .0
 03060    164.4    -155.1    .0
 03075    161.9    -155.2    .0
 03093    158.8    -155.3    .0
 03110    155.9    -155.2    .0
 03125    153.3    -155.3    .0
 03143    150.3    -155.3    .0
 03158    147.8    -155.1    .0
 03174    145.1    -155.1    .0
 03192    142.1    -155.2    .0
 03208    139.5    -155.4    .0
 03226    136.5    -155.3    .0
 03241    134.0    -155.3    .0
 03259    131.1    -155.3    .0
 03274    128.7    -155.4    .0
 03291    125.9    -155.3    .0
 03306    123.5    -155.4    .0
 03324    120.7    -155.4    .0
 03339    118.2    -155.4    .0
 03354    115.9    -155.3    .0
 03371    113.3    -155.4    .0
 03389    110.5    -155.4    .0
 03403    108.3    -155.4    .0
 03419    105.9    -155.5    .0
 03433    103.7    -155.4    .0
 03448    101.5    -155.5    .0
 03466    98.7    -155.3    .0
 03483    96.2    -155.5    .0
 03501    93.5    -155.4    .0
 03519    90.9    -155.5    .0
 03537    88.3    -155.4    .0
 03553    85.9    -155.6    .0
 03572    83.3    -155.5    .0
 03587    81.1    -155.5    .0
 03605    78.6    -155.5    .0
 03622    76.2    -155.6    .0
 03638    73.9    -155.5    .0
 03655    71.6    -155.6    .0
 03670    69.6    -155.4    .0
 03687    67.3    -155.6    .0
 03705    64.8    -155.4    .0
 03722    62.5    -155.5    .0
 03740    60.1    -155.7    .0
 03770    56.3    -155.4    .0
 03788    54.0    -155.5    .0
 03806    51.7    -155.5    .0
 03821    49.9    -155.6    .0
