time temp susc csusc
 0             0             0             0             0            no
 00000    39.3    -155.9   .0
 00020    42.2    -155.5   .0
 00039    44.9    -155.9   .0
 00058    47.6    -155.8   .0
 00076    50.2    -155.9   .0
 00092    52.7    -155.8   .0
 00109    55.2    -156.0   .0
 00127    57.9    -155.9   .0
 00142    60.1    -156.0   .0
 00156    62.3    -155.9   .0
 00174    65.0    -156.1   .0
 00192    67.9    -156.0   .0
 00210    70.6    -156.1   .0
 00228    73.4    -156.0   .0
 00244    75.8    -156.2   .0
 00262    78.7    -156.0   .0
 00280    81.6    -156.1   .0
 00298    84.5    -156.1   .0
 00315    87.3    -156.2   .0
 00333    90.1    -156.1   .0
 00349    92.7    -156.2   .0
 00366    95.5    -156.1   .0
 00383    98.4    -156.2   .0
 00402    101.4    -156.1   .0
 00417    104.0    -156.2   .0
 00435    107.0    -156.2   .0
 00451    109.6    -156.2   .0
 00469    112.6    -156.2   .0
 00486    115.5    -156.3   .0
 00504    118.6    -156.2   .0
 00518    121.1    -156.3   .0
 00537    124.2    -156.3   .0
 00554    127.2    -156.4   .0
 00572    130.4    -156.3   .0
 00587    132.9    -156.3   .0
 00605    136.1    -156.3   .0
 00620    138.7    -156.4   .0
 00638    141.8    -156.3   .0
 00653    144.6    -156.4   .0
 00669    147.3    -156.3   .0
 00686    150.4    -156.5   .0
 00704    153.6    -156.3   .0
 00721    156.7    -156.4   .0
 00739    159.9    -156.5   .0
 00755    162.8    -156.6   .0
 00772    165.9    -156.3   .0
 00787    168.6    -156.7   .0
 00805    171.9    -156.4   .0
 00823    175.2    -156.4   .0
 00841    178.5    -156.4   .0
 00857    181.4    -156.6   .0
 00875    184.7    -156.7   .0
 00890    187.6    -156.6   .0
 00908    190.9    -156.6   .0
 00923    193.8    -156.6   .0
 00941    197.1    -156.4   .0
 00956    199.9    -156.7   .0
 00975    203.4    -156.5   .0
 00993    206.8    -156.7   .0
 01011    210.3    -156.6   .0
 01026    213.1    -156.7   .0
 01041    215.9    -156.5   .0
 01055    218.7    -156.6   .0
 01074    222.2    -156.5   .0
 01089    225.1    -156.7   .0
 01106    228.4    -156.5   .0
 01123    231.7    -156.5   .0
 01142    235.3    -156.4   .0
 01157    238.2    -156.9   .0
 01175    241.7    -156.4   .0
 01193    245.1    -156.6   .0
 01211    248.7    -156.5   .0
 01228    252.0    -156.7   .0
 01244    255.1    -156.5   .0
 01261    258.4    -156.4   .0
 01275    261.3    -156.5   .0
 01290    264.1    -156.4   .0
 01307    267.4    -156.6   .0
 01323    270.6    -156.4   .0
 01340    273.9    -156.6   .0
 01356    277.1    -156.3   .0
 01372    280.2    -156.3   .0
 01390    283.9    -156.1   .0
 01408    287.3    -156.2   .0
 01426    290.9    -156.2   .0
 01441    294.0    -155.9   .0
 01460    297.7    -155.8   .0
 01475    300.7    -155.7   .0
 01490    303.6    -155.5   .0
 01504    306.5    -155.0   .0
 01523    310.2    -154.9   .0
 01537    313.1    -154.4   .0
 01553    316.2    -153.9   .0
 01569    319.5    -153.5   .0
 01587    323.0    -153.2   .0
 01602    325.9    -152.8   .0
 01617    329.1    -152.2   .0
 01635    332.6    -151.7   .0
 01652    336.0    -151.3   .0
 01668    339.2    -150.9   .0
 01685    342.7    -150.7   .0
 01700    345.7    -150.3   .0
 01716    348.8    -150.0   .0
 01732    352.2    -149.9   .0
 01748    355.2    -149.6   .0
 01762    358.2    -149.4   .0
 01778    361.2    -149.4   .0
 01794    364.6    -149.3   .0
 01809    367.6    -149.4   .0
 01826    371.1    -149.3   .0
 01843    374.4    -149.6   .0
 01859    377.6    -149.5   .0
 01877    381.2    -149.5   .0
 01893    384.3    -150.3   .0
 01911    388.0    -150.3   .0
 01926    391.1    -150.8   .0
 01945    394.8    -151.4   .0
 01960    397.9    -152.0   .0
 01978    401.5    -152.8   .0
 01994    404.7    -153.7   .0
 02012    408.2    -154.6   .0
 02026    411.2    -155.0   .0
 02044    414.7    -156.1   .0
 02061    418.0    -156.3   .0
 02077    421.3    -156.6   .0
 02095    424.9    -156.9   .0
 02111    428.1    -157.1   .0
 02126    431.0    -157.0   .0
 02141    434.0    -157.2   .0
 02159    437.6    -157.3   .0
 02174    440.6    -157.0   .0
 02191    444.0    -157.3   .0
 02210    447.6    -156.9   .0
 02225    450.7    -157.2   .0
 02242    454.0    -157.2   .0
 02259    457.5    -157.2   .0
 02275    460.6    -157.2   .0
 02293    464.1    -157.4   .0
 02309    467.2    -157.3   .0
 02325    470.4    -157.4   .0
 02340    473.3    -157.4   .0
 02356    476.4    -157.6   .0
 02374    479.9    -157.3   .0
 02390    483.1    -157.3   .0
 02405    486.0    -157.4   .0
 02423    489.5    -157.6   .0
 02440    492.7    -157.3   .0
 02456    495.8    -158.0   .0
 02474    499.3    -157.4   .0
 02490    502.4    -157.5   .0
 02508    505.8    -157.4   .0
 02524    509.0    -157.5   .0
 02541    512.3    -157.6   .0
 02558    515.5    -157.3   .0
 02575    518.7    -157.3   .0
 02593    522.2    -157.3   .0
 02609    525.1    -157.6   .0
 02627    528.5    -157.3   .0
 02643    531.7    -157.4   .0
 02661    534.9    -157.3   .0
 02679    538.3    -157.3   .0
 02696    541.5    -157.5   .0
 02714    544.9    -157.4   .0
 02730    547.8    -157.7   .0
 02748    551.1    -157.1   .0
 02763    553.9    -157.6   .0
 02778    556.8    -157.5   .0
 02796    560.1    -157.9   .0
 02814    563.3    -157.9   .0
 02830    566.2    -158.1   .0
 02845    569.0    -157.9   .0
 02861    571.8    -158.2   .0
 02879    575.1    -158.3   .0
 02896    578.2    -158.3   .0
 02911    580.9    -158.2   .0
 02928    583.9    -158.6   .0
 02946    587.1    -158.1   .0
 02962    590.0    -158.4   .0
 02980    593.1    -158.5   .0
 02996    595.9    -158.3   .0
 03010    598.5    -158.5   .0
 03028    601.5    -159.0   .0
 03045    604.5    -158.2   .0
 03062    607.4    -158.3   .0
 03076    609.9    -158.2   .0
 03091    612.4    -158.8   .0
 03108    615.4    -158.3   .0
 03126    618.4    -158.4   .0
 03143    621.3    -158.2   .0
 03160    624.1    -158.6   .0
 03175    626.7    -158.7   .0
 03191    629.4    -158.5   .0
 03210    632.4    -158.5   .0
 03227    635.4    -158.6   .0
 03245    638.3    -158.8   .0
 03262    641.1    -158.7   .0
 03279    643.8    -158.8   .0
 03296    646.6    -158.4   .0
 03313    649.3    -158.5   .0
 03328    651.7    -158.3   .0
 03345    654.4    -158.6   .0
 03363    657.2    -158.9   .0
 03380    659.9    -158.1   .0
 03395    662.2    -159.5   .0
 03410    664.6    -158.7   .0
 03425    667.0    -158.9   .0
 03443    669.7    -158.9   .0
 03461    672.5    -158.9   .0
 03476    674.8    -158.7   .0
 03492    677.1    -158.9   .0
 03510    679.8    -158.9   .0
 03525    682.1    -159.1   .0
 03543    684.7    -158.7   .0
 03560    687.2    -159.0   .0
 03575    689.4    -158.7   .0
 03592    691.9    -159.3   .0
 00005    692.4    -158.8    .0
 00018    693.8    -159.1    .0
 00036    695.8    -158.7    .0
 00051    697.6    -159.2    .0
 00069    699.8    -158.9    .0
 00087    702.1    -159.0    .0
 00104    703.2    -158.7    .0
 00122    700.8    -158.8    .0
 00140    698.5    -158.9    .0
 00157    696.1    -159.1    .0
 00174    693.9    -158.8    .0
 00191    691.5    -159.0    .0
 00209    688.9    -159.0    .0
 00224    686.8    -158.8    .0
 00240    684.6    -159.2    .0
 00258    682.0    -159.1    .0
 00276    679.5    -158.7    .0
 00293    677.0    -158.7    .0
 00311    674.4    -158.6    .0
 00328    671.9    -159.3    .0
 00345    669.3    -158.9    .0
 00362    666.8    -158.6    .0
 00377    664.6    -158.8    .0
 00393    662.3    -158.7    .0
 00410    659.6    -158.7    .0
 00428    656.8    -158.2    .0
 00446    654.0    -158.7    .0
 00463    651.3    -158.6    .0
 00481    648.6    -159.2    .0
 00498    645.9    -158.5    .0
 00516    643.0    -158.8    .0
 00534    640.2    -158.5    .0
 00551    637.5    -158.9    .0
 00566    635.1    -158.7    .0
 00581    632.6    -158.4    .0
 00600    629.6    -158.4    .0
 00617    626.7    -158.4    .0
 00634    623.9    -158.5    .0
 00651    621.0    -158.0    .0
 00668    618.2    -158.5    .0
 00686    615.3    -158.4    .0
 00704    612.3    -158.6    .0
 00718    609.7    -158.5    .0
 00734    607.0    -158.4    .0
 00753    603.9    -158.5    .0
 00767    601.4    -158.3    .0
 00784    598.4    -158.4    .0
 00802    595.4    -158.6    .0
 00819    592.4    -158.6    .0
 00837    589.3    -158.4    .0
 00854    586.3    -158.0    .0
 00871    583.2    -158.3    .0
 00888    580.3    -157.6    .0
 00906    577.1    -158.2    .0
 00923    574.0    -158.8    .0
 00940    571.1    -158.1    .0
 00957    567.9    -158.1    .0
 00974    564.8    -158.3    .0
 00992    561.6    -158.1    .0
 01009    558.4    -157.9    .0
 01024    555.7    -157.7    .0
 01042    552.3    -157.1    .0
 01061    549.0    -157.2    .0
 01075    546.3    -157.0    .0
 01091    543.4    -156.6    .0
 01109    540.1    -156.6    .0
 01126    536.9    -156.8    .0
 01143    533.6    -155.8    .0
 01160    530.5    -156.3    .0
 01175    527.6    -155.9    .0
 01191    524.6    -156.0    .0
 01209    521.2    -155.9    .0
 01226    518.0    -155.4    .0
 01244    514.7    -155.8    .0
 01260    511.5    -155.6    .0
 01278    508.1    -155.4    .0
 01296    504.8    -155.4    .0
 01313    501.5    -155.5    .0
 01330    498.2    -155.2    .0
 01347    494.8    -155.2    .0
 01365    491.4    -155.0    .0
 01383    488.0    -155.1    .0
 01398    485.0    -154.5    .0
 01414    482.0    -154.9    .0
 01432    478.4    -155.3    .0
 01448    475.4    -154.5    .0
 01466    471.8    -154.5    .0
 01483    468.4    -154.6    .0
 01499    465.3    -154.4    .0
 01517    461.9    -154.5    .0
 01532    458.9    -154.2    .0
 01547    456.0    -154.1    .0
 01563    452.9    -154.2    .0
 01581    449.3    -154.1    .0
 01598    445.9    -153.8    .0
 01616    442.4    -153.8    .0
 01631    439.3    -153.2    .0
 01649    435.9    -153.7    .0
 01666    432.4    -153.8    .0
 01682    429.3    -153.3    .0
 01697    426.3    -153.1    .0
 01716    422.6    -153.5    .0
 01732    419.3    -153.6    .0
 01749    415.9    -153.4    .0
 01764    412.9    -153.2    .0
 01780    409.8    -153.1    .0
 01799    406.0    -153.2    .0
 01817    402.5    -153.3    .0
 01834    399.0    -153.3    .0
 01851    395.7    -152.9    .0
 01869    392.2    -152.7    .0
 01885    388.9    -152.9    .0
 01902    385.4    -152.8    .0
 01919    382.0    -152.8    .0
 01936    378.6    -152.7    .0
 01953    375.4    -152.6    .0
 01971    371.8    -152.8    .0
 01987    368.6    -152.6    .0
 02004    365.2    -152.7    .0
 02021    361.7    -152.2    .0
 02038    358.4    -153.0    .0
 02053    355.4    -152.3    .0
 02070    352.0    -152.7    .0
 02088    348.3    -152.4    .0
 02105    345.1    -152.5    .0
 02123    341.6    -152.1    .0
 02139    338.2    -152.3    .0
 02157    334.7    -152.4    .0
 02173    331.6    -152.2    .0
 02191    328.1    -152.1    .0
 02208    324.6    -152.3    .0
 02225    321.2    -152.4    .0
 02240    318.2    -152.0    .0
 02257    315.0    -151.9    .0
 02274    311.5    -152.2    .0
 02291    308.2    -152.3    .0
 02308    304.8    -152.4    .0
 02323    301.9    -152.0    .0
 02340    298.6    -151.9    .0
 02358    295.0    -152.2    .0
 02374    291.9    -152.5    .0
 02391    288.6    -152.7    .0
 02408    285.4    -152.9    .0
 02426    281.9    -152.6    .0
 02442    278.8    -153.0    .0
 02460    275.3    -152.8    .0
 02475    272.4    -153.2    .0
 02493    268.9    -153.3    .0
 02510    265.6    -153.2    .0
 02525    262.8    -153.1    .0
 02543    259.4    -153.2    .0
 02561    255.9    -153.2    .0
 02576    252.9    -153.3    .0
 02594    249.5    -153.4    .0
 02611    246.4    -153.3    .0
 02627    243.4    -153.4    .0
 02644    240.1    -153.4    .0
 02661    237.0    -153.4    .0
 02678    233.7    -153.4    .0
 02694    230.7    -152.8    .0
 02711    227.5    -153.4    .0
 02729    224.2    -153.3    .0
 02746    221.0    -153.5    .0
 02761    218.2    -153.2    .0
 02777    215.4    -153.5    .0
 02795    212.1    -153.5    .0
 02810    209.3    -153.4    .0
 02826    206.3    -153.4    .0
 02844    203.0    -153.6    .0
 02860    200.1    -153.5    .0
 02876    197.2    -153.5    .0
 02891    194.5    -153.5    .0
 02906    191.9    -153.4    .0
 02923    188.8    -153.6    .0
 02941    185.6    -153.5    .0
 02957    182.8    -153.6    .0
 02975    179.6    -153.4    .0
 02991    176.8    -153.8    .0
 03009    173.7    -153.6    .0
 03024    171.0    -153.6    .0
 03041    168.1    -153.6    .0
 03055    165.6    -153.4    .0
 03071    162.8    -153.6    .0
 03089    159.7    -153.6    .0
 03106    156.9    -153.7    .0
 03123    154.0    -153.6    .0
 03138    151.5    -153.6    .0
 03152    149.0    -153.7    .0
 03167    146.5    -153.5    .0
 03182    144.0    -153.6    .0
 03201    140.9    -153.5    .0
 03216    138.4    -153.7    .0
 03234    135.4    -153.6    .0
 03249    133.0    -153.5    .0
 03266    130.2    -153.5    .0
 03284    127.3    -153.5    .0
 03300    124.7    -153.8    .0
 03315    122.4    -153.6    .0
 03332    119.6    -153.9    .0
 03350    116.7    -153.4    .0
 03368    114.0    -153.8    .0
 03386    111.2    -153.6    .0
 03403    108.5    -153.8    .0
 03422    105.7    -153.7    .0
 03440    102.9    -153.7    .0
 03458    100.2    -153.8    .0
 03473    97.9    -153.7    .0
 03488    95.7    -153.7    .0
 03506    93.1    -153.7    .0
 03521    90.9    -153.8    .0
 03539    88.3    -153.8    .0
 03554    86.0    -153.9    .0
 03572    83.4    -153.8    .0
 03587    81.3    -153.8    .0
 03604    79.0    -153.8    .0
 03622    76.4    -153.7    .0
 03637    74.2    -153.8    .0
 03655    71.8    -153.7    .0
 03670    69.8    -153.8    .0
 03687    67.5    -153.7    .0
 03703    65.3    -153.7    .0
 03720    63.0    -153.7    .0
 03736    60.9    -153.9    .0
 03754    58.6    -153.6    .0
 03771    56.3    -153.8    .0
 03789    54.0    -153.7    .0
 03807    51.7    -153.8    .0
 03826    49.4    -153.6    .0
