time temp susc csusc
 0             0             0             0             0            no
 00000    39.3    -156.9   .0
 00020    42.1    -156.6   .0
 00038    44.8    -157.0   .0
 00057    47.4    -156.9   .0
 00075    50.1    -156.9   .0
 00090    52.4    -156.9   .0
 00106    54.8    -156.9   .0
 00122    57.1    -156.9   .0
 00138    59.6    -157.2   .0
 00157    62.4    -157.0   .0
 00174    65.1    -157.1   .0
 00193    67.9    -157.1   .0
 00209    70.5    -157.1   .0
 00227    73.3    -157.0   .0
 00243    75.8    -157.2   .0
 00262    78.7    -157.1   .0
 00277    81.1    -157.3   .0
 00295    84.0    -157.1   .0
 00313    86.9    -157.3   .0
 00332    89.9    -157.1   .0
 00349    92.8    -157.3   .0
 00367    95.7    -157.2   .0
 00385    98.7    -157.3   .0
 00403    101.7    -157.3   .0
 00421    104.6    -157.4   .0
 00439    107.6    -157.3   .0
 00456    110.4    -157.3   .0
 00474    113.4    -157.3   .0
 00489    116.0    -157.4   .0
 00507    119.2    -157.6   .0
 00523    121.9    -157.6   .0
 00539    124.5    -157.2   .0
 00556    127.6    -157.5   .0
 00575    130.8    -157.4   .0
 00593    133.9    -157.5   .0
 00608    136.6    -157.4   .0
 00626    139.8    -157.6   .0
 00644    142.9    -157.4   .0
 00661    145.9    -157.6   .0
 00679    149.1    -157.4   .0
 00694    151.7    -157.6   .0
 00712    155.0    -157.4   .0
 00730    158.2    -157.7   .0
 00749    161.6    -157.5   .0
 00767    164.9    -157.7   .0
 00785    168.3    -157.5   .0
 00802    171.4    -157.7   .0
 00821    174.7    -157.6   .0
 00836    177.6    -157.7   .0
 00855    181.0    -157.7   .0
 00872    184.3    -157.8   .0
 00890    187.6    -157.6   .0
 00907    190.8    -157.8   .0
 00925    194.1    -157.6   .0
 00943    197.4    -157.8   .0
 00961    200.8    -157.8   .0
 00979    204.3    -157.7   .0
 00995    207.2    -157.6   .0
 01010    210.0    -157.8   .0
 01028    213.5    -157.7   .0
 01046    216.8    -157.8   .0
 01064    220.3    -157.4   .0
 01080    223.5    -157.8   .0
 01096    226.5    -157.8   .0
 01112    229.5    -157.8   .0
 01127    232.5    -157.7   .0
 01145    235.8    -157.7   .0
 01162    239.2    -157.7   .0
 01178    242.3    -157.8   .0
 01195    245.7    -157.8   .0
 01212    248.9    -157.9   .0
 01230    252.5    -157.6   .0
 01248    255.9    -157.8   .0
 01266    259.4    -157.7   .0
 01282    262.5    -157.9   .0
 01297    265.6    -157.7   .0
 01315    269.1    -157.8   .0
 01333    272.7    -157.7   .0
 01348    275.6    -157.8   .0
 01366    279.2    -157.8   .0
 01382    282.2    -157.7   .0
 01397    285.3    -157.8   .0
 01412    288.2    -157.8   .0
 01428    291.3    -157.6   .0
 01443    294.3    -157.7   .0
 01461    297.9    -157.6   .0
 01478    301.3    -157.7   .0
 01496    304.8    -157.5   .0
 01511    307.8    -157.6   .0
 01527    311.0    -157.4   .0
 01541    313.9    -157.2   .0
 01557    317.0    -157.3   .0
 01572    320.1    -157.0   .0
 01587    323.1    -156.7   .0
 01603    326.2    -156.6   .0
 01621    329.8    -156.4   .0
 01636    332.7    -156.2   .0
 01651    335.8    -156.0   .0
 01668    339.2    -155.8   .0
 01683    342.2    -155.5   .0
 01700    345.7    -155.3   .0
 01718    349.3    -155.1   .0
 01733    352.4    -155.0   .0
 01751    355.9    -154.9   .0
 01766    358.9    -154.7   .0
 01784    362.4    -154.7   .0
 01802    366.1    -154.5   .0
 01820    369.7    -154.6   .0
 01838    373.4    -154.5   .0
 01856    377.0    -154.7   .0
 01874    380.6    -154.5   .0
 01889    383.7    -154.7   .0
 01905    386.8    -154.6   .0
 01923    390.4    -154.6   .0
 01941    394.0    -154.8   .0
 01956    397.0    -154.7   .0
 01974    400.7    -155.0   .0
 01993    404.4    -155.0   .0
 02012    408.2    -155.3   .0
 02030    411.9    -155.3   .0
 02047    415.3    -155.8   .0
 02065    418.9    -156.0   .0
 02080    421.9    -156.5   .0
 02098    425.4    -157.0   .0
 02113    428.4    -157.4   .0
 02128    431.5    -157.7   .0
 02143    434.5    -157.9   .0
 02161    438.1    -158.0   .0
 02178    441.3    -158.1   .0
 02193    444.4    -158.2   .0
 02208    447.4    -158.2   .0
 02223    450.3    -158.3   .0
 02239    453.4    -158.2   .0
 02255    456.7    -158.3   .0
 02274    460.3    -158.3   .0
 02289    463.2    -158.4   .0
 02304    466.3    -158.4   .0
 02320    469.3    -158.4   .0
 02335    472.4    -158.3   .0
 02351    475.4    -158.2   .0
 02366    478.4    -158.4   .0
 02382    481.4    -158.4   .0
 02400    485.0    -158.6   .0
 02415    487.9    -158.7   .0
 02433    491.4    -158.6   .0
 02448    494.2    -158.3   .0
 02466    497.7    -158.4   .0
 02484    501.3    -158.5   .0
 02500    504.3    -158.6   .0
 02517    507.7    -158.7   .0
 02532    510.6    -158.6   .0
 02547    513.4    -158.6   .0
 02563    516.4    -158.6   .0
 02578    519.2    -158.7   .0
 02593    522.2    -158.6   .0
 02608    525.0    -158.6   .0
 02624    528.0    -158.7   .0
 02642    531.4    -158.6   .0
 02657    534.2    -158.5   .0
 02673    537.2    -158.4   .0
 02690    540.4    -158.9   .0
 02706    543.3    -158.8   .0
 02721    546.1    -158.8   .0
 02739    549.5    -159.0   .0
 02755    552.4    -158.8   .0
 02770    555.2    -158.7   .0
 02788    558.5    -159.2   .0
 02803    561.2    -159.0   .0
 02821    564.6    -159.2   .0
 02839    567.9    -159.2   .0
 02857    571.2    -159.4   .0
 02876    574.5    -159.3   .0
 02891    577.2    -159.3   .0
 02908    580.4    -159.4   .0
 02925    583.4    -159.5   .0
 02940    586.1    -159.4   .0
 02956    588.9    -159.3   .0
 02974    592.0    -159.3   .0
 02992    595.2    -159.4   .0
 03009    598.2    -159.5   .0
 03024    600.9    -159.5   .0
 03042    604.0    -159.5   .0
 03060    607.2    -159.5   .0
 03075    609.7    -159.4   .0
 03090    612.3    -159.4   .0
 03108    615.4    -159.7   .0
 03123    618.0    -159.4   .0
 03138    620.5    -159.4   .0
 03156    623.6    -159.6   .0
 03171    626.1    -159.5   .0
 03189    628.9    -159.6   .0
 03207    631.9    -159.6   .0
 03224    634.9    -159.8   .0
 03240    637.4    -159.5   .0
 03258    640.3    -159.8   .0
 03276    643.3    -159.6   .0
 03294    646.3    -159.7   .0
 03312    649.2    -159.6   .0
 03330    652.0    -159.7   .0
 03348    655.0    -159.9   .0
 03363    657.3    -159.8   .0
 03378    659.7    -159.7   .0
 03396    662.5    -159.8   .0
 03414    665.3    -159.8   .0
 03430    667.7    -159.8   .0
 03445    670.0    -159.8   .0
 03460    672.3    -159.7   .0
 03476    674.8    -159.7   .0
 03495    677.5    -159.7   .0
 03512    680.1    -159.9   .0
 03529    682.6    -159.9   .0
 03546    685.1    -159.8   .0
 03564    687.7    -159.9   .0
 03579    689.9    -159.8   .0
 03596    692.5    -159.9   .0
 00005    693.0    -159.5    .0
 00018    694.4    -159.9    .0
 00037    696.4    -159.8    .0
 00052    698.2    -159.8    .0
 00069    700.2    -159.8    .0
 00087    702.5    -159.9    .0
 00104    703.7    -160.0    .0
 00122    701.4    -159.9    .0
 00137    699.3    -159.8    .0
 00155    697.0    -159.7    .0
 00173    694.5    -159.9    .0
 00190    692.1    -159.8    .0
 00207    689.8    -159.7    .0
 00225    687.4    -159.9    .0
 00242    684.9    -160.0    .0
 00260    682.4    -159.8    .0
 00275    680.2    -159.4    .0
 00291    677.9    -159.6    .0
 00309    675.3    -159.7    .0
 00326    672.8    -159.6    .0
 00342    670.4    -159.6    .0
 00360    667.7    -159.6    .0
 00377    665.2    -159.6    .0
 00395    662.5    -159.6    .0
 00412    659.9    -159.8    .0
 00430    657.2    -159.8    .0
 00445    654.9    -159.3    .0
 00463    652.0    -159.5    .0
 00482    649.1    -159.5    .0
 00500    646.2    -159.7    .0
 00518    643.4    -159.3    .0
 00533    640.9    -159.5    .0
 00548    638.6    -159.5    .0
 00564    636.1    -159.4    .0
 00579    633.6    -159.3    .0
 00597    630.7    -159.4    .0
 00615    627.7    -159.5    .0
 00632    624.9    -159.3    .0
 00649    622.0    -159.2    .0
 00667    619.1    -159.5    .0
 00684    616.2    -159.0    .0
 00701    613.3    -159.3    .0
 00719    610.3    -159.5    .0
 00735    607.7    -159.1    .0
 00750    605.0    -159.3    .0
 00768    602.0    -159.3    .0
 00783    599.4    -159.1    .0
 00799    596.6    -159.3    .0
 00817    593.4    -159.0    .0
 00835    590.3    -159.2    .0
 00853    587.2    -159.4    .0
 00870    584.2    -159.3    .0
 00885    581.5    -159.0    .0
 00901    578.7    -158.8    .0
 00919    575.5    -159.0    .0
 00937    572.2    -158.9    .0
 00955    569.0    -158.9    .0
 00972    565.9    -158.8    .0
 00988    563.1    -158.7    .0
 01003    560.3    -158.0    .0
 01021    557.0    -156.5    .0
 01039    553.8    -152.5    .0
 01054    550.9    -140.0    .0
 01072    547.7    -121.3    .0
 01091    544.2    -113.8    .0
 01106    541.4    -110.8    .0
 01120    538.7    -109.7    .0
 01139    535.2    -109.5    .0
 01156    532.0    -109.6    .0
 01171    529.2    -109.7    .0
 01187    526.2    -109.8    .0
 01205    522.7    -110.1    .0
 01222    519.5    -110.1    .0
 01240    516.2    -110.2    .0
 01256    513.1    -110.5    .0
 01272    510.1    -110.2    .0
 01288    507.1    -110.4    .0
 01306    503.6    -110.5    .0
 01321    500.6    -110.7    .0
 01336    497.8    -110.7    .0
 01351    494.9    -110.7    .0
 01369    491.5    -110.7    .0
 01388    487.9    -110.8    .0
 01405    484.5    -110.9    .0
 01420    481.6    -110.4    .0
 01438    478.0    -110.8    .0
 01457    474.5    -110.6    .0
 01475    470.9    -110.6    .0
 01493    467.4    -110.7    .0
 01508    464.5    -110.6    .0
 01523    461.4    -110.6    .0
 01541    457.9    -110.6    .0
 01559    454.4    -110.6    .0
 01577    450.9    -110.7    .0
 01593    447.6    -110.7    .0
 01611    444.2    -110.8    .0
 01628    440.7    -110.7    .0
 01646    437.2    -110.6    .0
 01663    433.9    -110.6    .0
 01680    430.5    -110.5    .0
 01698    427.0    -110.7    .0
 01713    423.9    -110.7    .0
 01728    421.0    -110.7    .0
 01746    417.4    -110.8    .0
 01763    413.9    -110.9    .0
 01779    410.8    -110.5    .0
 01795    407.7    -110.8    .0
 01812    404.2    -110.7    .0
 01828    401.1    -110.8    .0
 01843    398.1    -110.7    .0
 01858    395.1    -110.8    .0
 01875    391.7    -110.8    .0
 01893    388.1    -110.8    .0
 01908    385.0    -110.6    .0
 01926    381.5    -110.8    .0
 01944    377.8    -110.7    .0
 01960    374.7    -110.7    .0
 01978    371.1    -110.8    .0
 01993    368.1    -110.8    .0
 02009    365.0    -110.7    .0
 02026    361.5    -110.7    .0
 02044    357.9    -110.9    .0
 02059    354.9    -110.7    .0
 02077    351.5    -110.9    .0
 02095    347.8    -110.6    .0
 02112    344.5    -110.9    .0
 02130    340.9    -110.9    .0
 02145    337.9    -110.8    .0
 02163    334.3    -110.9    .0
 02178    331.3    -110.8    .0
 02196    327.8    -111.0    .0
 02215    324.1    -110.8    .0
 02230    321.0    -111.0    .0
 02248    317.4    -111.1    .0
 02266    314.0    -110.9    .0
 02281    311.1    -111.0    .0
 02296    308.1    -111.0    .0
 02312    305.0    -111.3    .0
 02330    301.4    -111.3    .0
 02345    298.4    -111.4    .0
 02361    295.3    -111.5    .0
 02376    292.4    -111.7    .0
 02391    289.5    -112.2    .0
 02409    286.0    -112.6    .0
 02426    282.6    -113.2    .0
 02441    279.6    -113.2    .0
 02459    276.3    -113.7    .0
 02477    272.8    -114.1    .0
 02492    269.8    -114.4    .0
 02510    266.4    -114.7    .0
 02528    263.0    -115.0    .0
 02545    259.7    -115.5    .0
 02561    256.7    -115.5    .0
 02576    253.8    -116.0    .0
 02594    250.3    -116.4    .0
 02610    247.4    -116.4    .0
 02627    244.1    -116.8    .0
 02645    240.7    -117.1    .0
 02660    237.8    -117.3    .0
 02676    234.9    -117.6    .0
 02693    231.7    -117.8    .0
 02710    228.5    -118.1    .0
 02727    225.3    -118.2    .0
 02743    222.3    -118.5    .0
 02760    219.1    -118.8    .0
 02776    216.2    -118.8    .0
 02792    213.3    -119.3    .0
 02810    209.9    -119.5    .0
 02825    207.2    -119.6    .0
 02843    204.0    -119.8    .0
 02858    201.3    -120.0    .0
 02873    198.5    -120.2    .0
 02889    195.7    -120.3    .0
 02906    192.6    -120.6    .0
 02921    189.9    -120.6    .0
 02936    187.2    -121.0    .0
 02954    184.0    -121.2    .0
 02969    181.3    -121.2    .0
 02985    178.5    -121.4    .0
 03002    175.5    -121.6    .0
 03017    172.9    -121.7    .0
 03033    170.1    -121.9    .0
 03048    167.5    -122.0    .0
 03064    164.8    -122.2    .0
 03083    161.5    -122.3    .0
 03098    158.9    -122.5    .0
 03115    155.9    -122.7    .0
 03131    153.3    -122.7    .0
 03146    150.7    -122.9    .0
 03164    147.8    -123.0    .0
 03179    145.3    -123.2    .0
 03196    142.3    -123.3    .0
 03211    139.9    -123.5    .0
 03226    137.4    -123.6    .0
 03241    134.9    -123.6    .0
 03257    132.4    -123.8    .0
 03272    129.9    -123.8    .0
 03288    127.4    -124.0    .0
 03306    124.5    -124.1    .0
 03322    121.9    -124.1    .0
 03337    119.4    -124.3    .0
 03355    116.7    -124.3    .0
 03369    114.4    -124.6    .0
 03387    111.7    -124.7    .0
 03402    109.3    -124.7    .0
 03417    107.0    -124.8    .0
 03433    104.7    -124.8    .0
 03448    102.3    -125.0    .0
 03466    99.6    -125.1    .0
 03482    97.2    -125.2    .0
 03499    94.7    -125.3    .0
 03513    92.5    -125.4    .0
 03529    90.3    -125.4    .0
 03544    88.0    -125.6    .0
 03560    85.8    -125.6    .0
 03575    83.5    -125.7    .0
 03593    81.0    -125.8    .0
 03609    78.8    -126.0    .0
 03624    76.6    -125.9    .0
 03642    74.2    -126.2    .0
 03660    71.7    -126.1    .0
 03678    69.2    -126.3    .0
 03697    66.7    -126.2    .0
 03711    64.7    -126.6    .0
 03730    62.3    -126.4    .0
 03748    59.9    -126.7    .0
 03766    57.5    -126.7    .0
 03783    55.3    -126.7    .0
 03802    53.0    -127.0    .0
 03817    51.0    -126.9    .0
 03834    48.9    -127.1    .0
