time temp susc csusc
 0             0             0             0             0            no
 00000    39.3    -156.3   .0
 00020    42.1    -156.1   .0
 00039    44.8    -156.3   .0
 00057    47.5    -156.2   .0
 00074    50.0    -156.4   .0
 00091    52.6    -156.3   .0
 00109    55.1    -156.5   .0
 00127    57.8    -156.4   .0
 00144    60.5    -156.5   .0
 00162    63.2    -156.4   .0
 00177    65.5    -156.6   .0
 00195    68.2    -156.5   .0
 00211    70.7    -156.6   .0
 00228    73.4    -156.6   .0
 00244    75.9    -156.6   .0
 00261    78.6    -156.6   .0
 00277    81.1    -156.6   .0
 00293    83.7    -156.7   .0
 00309    86.2    -156.6   .0
 00326    88.9    -156.7   .0
 00344    91.9    -156.7   .0
 00359    94.4    -156.8   .0
 00376    97.2    -156.7   .0
 00394    100.1    -156.9   .0
 00411    102.9    -156.7   .0
 00428    105.8    -156.8   .0
 00446    108.8    -156.7   .0
 00464    111.8    -156.9   .0
 00482    114.9    -156.8   .0
 00500    117.9    -157.1   .0
 00518    121.0    -156.7   .0
 00536    124.0    -157.0   .0
 00554    127.2    -156.9   .0
 00571    130.2    -157.0   .0
 00589    133.3    -157.0   .0
 00605    136.0    -157.0   .0
 00623    139.3    -156.9   .0
 00639    142.0    -157.1   .0
 00654    144.7    -157.0   .0
 00670    147.6    -157.1   .0
 00687    150.6    -157.1   .0
 00703    153.4    -157.1   .0
 00719    156.2    -157.1   .0
 00734    159.1    -157.2   .0
 00752    162.3    -157.0   .0
 00767    165.0    -157.2   .0
 00785    168.3    -157.0   .0
 00800    171.0    -157.3   .0
 00818    174.3    -157.1   .0
 00836    177.6    -157.3   .0
 00855    181.0    -157.1   .0
 00872    184.3    -157.3   .0
 00890    187.6    -157.3   .0
 00905    190.4    -157.3   .0
 00924    193.8    -157.4   .0
 00939    196.7    -157.1   .0
 00954    199.5    -157.3   .0
 00972    202.9    -157.1   .0
 00988    206.0    -157.4   .0
 01006    209.4    -157.3   .0
 01022    212.3    -157.3   .0
 01039    215.7    -157.1   .0
 01055    218.7    -157.4   .0
 01073    222.2    -157.5   .0
 01089    225.1    -157.3   .0
 01104    228.1    -157.3   .0
 01122    231.5    -157.4   .0
 01137    234.5    -157.4   .0
 01152    237.3    -157.4   .0
 01167    240.2    -157.6   .0
 01183    243.3    -157.3   .0
 01199    246.4    -157.4   .0
 01215    249.4    -157.5   .0
 01230    252.4    -157.4   .0
 01246    255.5    -157.3   .0
 01261    258.5    -157.4   .0
 01277    261.5    -157.5   .0
 01293    264.8    -157.5   .0
 01308    267.7    -157.2   .0
 01326    271.2    -157.5   .0
 01344    274.8    -157.5   .0
 01362    278.4    -157.5   .0
 01380    281.9    -157.5   .0
 01396    285.0    -157.5   .0
 01414    288.5    -157.3   .0
 01429    291.5    -157.7   .0
 01446    295.0    -157.5   .0
 01461    298.0    -157.6   .0
 01477    301.0    -157.3   .0
 01494    304.5    -157.5   .0
 01512    308.1    -157.3   .0
 01530    311.6    -157.5   .0
 01548    315.2    -157.4   .0
 01566    318.9    -157.4   .0
 01585    322.5    -157.3   .0
 01601    325.9    -157.3   .0
 01619    329.5    -157.4   .0
 01637    333.1    -157.3   .0
 01652    336.1    -157.2   .0
 01671    339.8    -157.1   .0
 01686    342.8    -157.2   .0
 01704    346.5    -157.2   .0
 01720    349.7    -156.9   .0
 01738    353.3    -156.9   .0
 01753    356.4    -156.8   .0
 01770    359.6    -156.8   .0
 01788    363.4    -156.7   .0
 01804    366.5    -156.5   .0
 01819    369.6    -156.4   .0
 01835    372.7    -156.3   .0
 01851    376.1    -156.2   .0
 01866    379.1    -155.8   .0
 01883    382.5    -155.6   .0
 01900    385.8    -155.6   .0
 01917    389.3    -155.2   .0
 01932    392.3    -154.9   .0
 01950    395.9    -154.5   .0
 01967    399.3    -154.3   .0
 01983    402.4    -153.7   .0
 02000    405.9    -153.1   .0
 02018    409.5    -152.5   .0
 02033    412.6    -151.7   .0
 02051    416.0    -150.8   .0
 02069    419.6    -149.7   .0
 02083    422.6    -148.8   .0
 02099    425.7    -147.6   .0
 02115    428.8    -146.4   .0
 02130    431.7    -145.0   .0
 02147    435.3    -143.7   .0
 02163    438.3    -142.0   .0
 02180    441.8    -140.8   .0
 02199    445.4    -139.2   .0
 02216    448.9    -138.0   .0
 02232    452.0    -136.5   .0
 02248    455.3    -135.3   .0
 02266    458.8    -134.0   .0
 02282    461.8    -133.0   .0
 02300    465.4    -132.0   .0
 02315    468.3    -130.8   .0
 02333    471.9    -129.9   .0
 02348    474.8    -128.8   .0
 02364    478.1    -127.9   .0
 02382    481.6    -126.9   .0
 02398    484.6    -125.9   .0
 02413    487.5    -125.0   .0
 02430    490.8    -123.6   .0
 02445    493.8    -122.3   .0
 02461    496.8    -120.9   .0
 02476    499.8    -119.3   .0
 02492    502.7    -117.6   .0
 02507    505.7    -115.0   .0
 02525    509.1    -112.5   .0
 02543    512.6    -109.4   .0
 02561    516.0    -105.9   .0
 02579    519.5    -102.5   .0
 02595    522.4    -98.9   .0
 02610    525.4    -95.0   .0
 02626    528.4    -90.6   .0
 02644    531.8    -87.0   .0
 02659    534.6    -83.2   .0
 02677    537.9    -80.4   .0
 02693    541.0    -78.6   .0
 02709    543.9    -78.3   .0
 02725    546.8    -79.6   .0
 02739    549.6    -83.0   .0
 02757    552.8    -88.4   .0
 02772    555.6    -95.2   .0
 02787    558.4    -104.6   .0
 02805    561.8    -113.6   .0
 02821    564.6    -125.1   .0
 02839    567.8    -136.4   .0
 02856    570.9    -147.4   .0
 02874    574.3    -153.9   .0
 02890    577.1    -157.3   .0
 02905    579.8    -158.5   .0
 02921    582.6    -158.6   .0
 02936    585.3    -158.7   .0
 02954    588.6    -158.8   .0
 02972    591.7    -159.1   .0
 02987    594.4    -158.9   .0
 03004    597.4    -159.0   .0
 03022    600.5    -158.7   .0
 03037    603.1    -159.0   .0
 03055    606.2    -159.1   .0
 03073    609.3    -159.1   .0
 03089    612.0    -159.1   .0
 03106    615.0    -159.0   .0
 03121    617.6    -159.4   .0
 03136    620.2    -159.1   .0
 03154    623.2    -159.2   .0
 03173    626.3    -159.0   .0
 03189    629.1    -159.2   .0
 03207    632.0    -159.7   .0
 03222    634.5    -159.2   .0
 03240    637.4    -159.2   .0
 03257    640.3    -159.2   .0
 03273    642.8    -159.3   .0
 03288    645.3    -159.3   .0
 03304    647.8    -159.4   .0
 03319    650.3    -159.2   .0
 03337    653.1    -159.3   .0
 03354    655.9    -159.3   .0
 03370    658.3    -159.2   .0
 03385    660.8    -159.6   .0
 03403    663.5    -159.4   .0
 03421    666.3    -159.2   .0
 03439    669.1    -159.5   .0
 03457    671.8    -159.3   .0
 03475    674.5    -159.6   .0
 03493    677.3    -159.5   .0
 03510    679.8    -160.1   .0
 03526    682.1    -159.4   .0
 03543    684.7    -159.3   .0
 03560    687.2    -159.4   .0
 03577    689.6    -159.4   .0
 03594    692.2    -160.2   .0
 00005    692.7    -159.4    .0
 00018    694.1    -159.8    .0
 00036    696.1    -159.5    .0
 00053    698.0    -159.6    .0
 00070    700.1    -159.5    .0
 00085    702.1    -159.4    .0
 00104    703.5    -159.3    .0
 00122    701.1    -159.7    .0
 00137    699.0    -159.5    .0
 00152    697.0    -159.6    .0
 00170    694.6    -159.9    .0
 00186    692.5    -159.3    .0
 00204    689.9    -159.4    .0
 00222    687.4    -159.3    .0
 00241    684.8    -159.4    .0
 00259    682.2    -159.4    .0
 00274    680.1    -159.2    .0
 00290    677.7    -159.2    .0
 00308    675.1    -159.3    .0
 00323    672.9    -159.3    .0
 00338    670.7    -159.2    .0
 00354    668.4    -159.4    .0
 00369    666.1    -159.1    .0
 00385    663.7    -159.1    .0
 00403    661.0    -159.0    .0
 00419    658.5    -159.0    .0
 00437    655.8    -159.1    .0
 00454    653.2    -159.1    .0
 00469    650.7    -159.0    .0
 00487    648.0    -159.0    .0
 00502    645.5    -158.9    .0
 00518    643.1    -159.1    .0
 00536    640.2    -158.9    .0
 00553    637.4    -158.9    .0
 00571    634.5    -158.8    .0
 00588    631.8    -158.9    .0
 00605    629.0    -158.9    .0
 00621    626.4    -158.7    .0
 00638    623.6    -158.8    .0
 00656    620.6    -158.8    .0
 00671    618.1    -158.5    .0
 00687    615.3    -158.6    .0
 00706    612.2    -158.7    .0
 00723    609.3    -158.7    .0
 00739    606.6    -158.5    .0
 00754    604.0    -158.5    .0
 00772    600.9    -158.6    .0
 00787    598.2    -158.3    .0
 00804    595.4    -158.4    .0
 00822    592.2    -158.3    .0
 00838    589.5    -158.3    .0
 00853    586.8    -158.1    .0
 00871    583.7    -158.4    .0
 00888    580.5    -158.2    .0
 00906    577.4    -158.2    .0
 00924    574.2    -157.9    .0
 00939    571.6    -157.1    .0
 00954    568.7    -156.4    .0
 00972    565.5    -153.7    .0
 00990    562.4    -150.5    .0
 01005    559.6    -146.0    .0
 01020    556.8    -138.6    .0
 01038    553.5    -131.2    .0
 01054    550.7    -120.2    .0
 01071    547.5    -107.3    .0
 01089    544.1    -93.6    .0
 01106    540.9    -76.5    .0
 01124    537.6    -59.0    .0
 01140    534.6    -40.6    .0
 01156    531.7    -20.5    .0
 01171    528.7    4.7    .0
 01190    525.3    25.4    .0
 01206    522.2    47.0    .0
 01224    518.8    65.0    .0
 01242    515.4    76.9    .0
 01257    512.6    89.3    .0
 01274    509.3    99.1    .0
 01292    505.8    105.5    .0
 01309    502.5    109.4    .0
 01324    499.7    113.3    .0
 01340    496.7    116.8    .0
 01358    493.2    119.1    .0
 01373    490.3    121.6    .0
 01389    487.1    123.4    .0
 01407    483.7    124.4    .0
 01422    480.8    126.2    .0
 01440    477.3    126.8    .0
 01458    473.7    127.7    .0
 01475    470.5    128.0    .0
 01492    467.1    128.6    .0
 01510    463.6    128.6    .0
 01528    460.0    128.5    .0
 01544    456.9    128.3    .0
 01559    453.9    128.1    .0
 01576    450.7    127.6    .0
 01594    447.2    127.0    .0
 01610    443.8    126.4    .0
 01627    440.6    125.6    .0
 01645    437.1    124.9    .0
 01660    434.1    124.4    .0
 01675    431.1    123.6    .0
 01690    428.0    122.6    .0
 01709    424.3    121.8    .0
 01726    421.0    120.7    .0
 01744    417.4    119.9    .0
 01759    414.3    118.9    .0
 01777    410.7    118.1    .0
 01794    407.5    117.0    .0
 01811    403.9    116.0    .0
 01829    400.5    115.0    .0
 01844    397.4    114.2    .0
 01862    393.8    112.9    .0
 01880    390.2    112.2    .0
 01896    387.1    111.1    .0
 01914    383.6    109.9    .0
 01930    380.2    108.9    .0
 01946    377.1    107.9    .0
 01963    373.6    106.7    .0
 01981    370.2    105.8    .0
 01997    367.0    104.7    .0
 02012    363.9    103.9    .0
 02027    360.9    102.9    .0
 02045    357.3    101.8    .0
 02062    353.9    100.7    .0
 02078    350.9    99.6    .0
 02093    347.8    98.7    .0
 02110    344.3    97.3    .0
 02128    340.9    96.5    .0
 02143    337.8    95.6    .0
 02158    334.8    94.3    .0
 02174    331.8    93.2    .0
 02189    328.7    92.6    .0
 02206    325.3    90.8    .0
 02225    321.7    89.9    .0
 02243    318.1    88.4    .0
 02261    314.4    87.5    .0
 02279    311.0    86.1    .0
 02297    307.5    85.2    .0
 02312    304.4    83.8    .0
 02330    300.9    82.6    .0
 02347    297.5    81.7    .0
 02363    294.6    80.7    .0
 02378    291.6    79.7    .0
 02393    288.6    78.4    .0
 02411    285.1    77.3    .0
 02429    281.7    76.1    .0
 02446    278.4    74.9    .0
 02464    274.9    73.8    .0
 02479    271.9    72.9    .0
 02495    268.8    71.5    .0
 02514    265.3    70.4    .0
 02531    262.0    69.0    .0
 02549    258.5    68.0    .0
 02565    255.5    67.2    .0
 02580    252.6    65.9    .0
 02598    249.2    65.0    .0
 02613    246.3    64.1    .0
 02628    243.4    63.2    .0
 02644    240.5    62.2    .0
 02661    237.3    61.3    .0
 02676    234.4    60.3    .0
 02694    231.1    59.5    .0
 02709    228.2    58.7    .0
 02726    225.2    57.6    .0
 02744    221.8    56.8    .0
 02759    219.0    55.8    .0
 02777    215.7    55.2    .0
 02792    212.9    54.2    .0
 02809    209.7    53.3    .0
 02825    206.8    52.6    .0
 02841    204.0    51.7    .0
 02856    201.2    51.1    .0
 02871    198.5    50.1    .0
 02889    195.2    49.5    .0
 02905    192.4    48.7    .0
 02920    189.6    48.1    .0
 02938    186.5    47.3    .0
 02953    183.8    46.8    .0
 02970    180.8    45.9    .0
 02988    177.6    45.4    .0
 03005    174.6    44.6    .0
 03023    171.4    43.9    .0
 03038    168.8    43.4    .0
 03054    166.1    42.6    .0
 03071    163.1    42.2    .0
 03086    160.6    41.4    .0
 03104    157.5    40.9    .0
 03120    154.8    40.2    .0
 03138    151.8    39.5    .0
 03153    149.2    39.1    .0
 03168    146.6    38.4    .0
 03185    143.8    37.9    .0
 03201    141.2    37.3    .0
 03217    138.5    36.7    .0
 03235    135.6    36.3    .0
 03250    133.1    35.9    .0
 03266    130.6    35.2    .0
 03284    127.7    34.8    .0
 03300    125.1    34.2    .0
 03317    122.3    33.9    .0
 03332    119.9    33.3    .0
 03350    117.1    33.0    .0
 03366    114.6    32.4    .0
 03384    111.8    32.2    .0
 03399    109.5    31.7    .0
 03417    106.8    31.4    .0
 03432    104.4    30.9    .0
 03447    102.1    30.6    .0
 03465    99.4    30.1    .0
 03483    96.8    30.0    .0
 03497    94.6    29.4    .0
 03516    91.9    29.2    .0
 03534    89.2    28.6    .0
 03552    86.6    28.4    .0
 03568    84.3    28.0    .0
 03586    81.7    27.8    .0
 03601    79.6    27.3    .0
 03618    77.1    27.0    .0
 03634    74.9    26.6    .0
 03652    72.5    26.4    .0
 03667    70.3    26.0    .0
 03685    67.9    25.8    .0
 03702    65.7    25.5    .0
 03720    63.3    25.3    .0
 03737    61.0    24.9    .0
 03755    58.7    24.8    .0
 03772    56.4    24.5    .0
 03791    54.1    24.4    .0
 03807    52.0    24.0    .0
 03826    49.7    24.0    .0
