time temp susc csusc
 0             0             0             0             0            no
 00000    39.3    -155.4   .0
 00020    42.1    -155.2   .0
 00038    44.8    -155.5   .0
 00057    47.5    -155.4   .0
 00074    50.0    -155.5   .0
 00089    52.3    -155.6   .0
 00104    54.5    -155.7   .0
 00122    57.1    -155.6   .0
 00138    59.6    -155.7   .0
 00157    62.4    -155.7   .0
 00172    64.7    -155.8   .0
 00188    67.1    -155.7   .0
 00205    69.8    -155.9   .0
 00223    72.7    -155.7   .0
 00240    75.3    -155.9   .0
 00259    78.2    -155.8   .0
 00274    80.6    -156.0   .0
 00292    83.5    -155.9   .0
 00307    85.9    -156.0   .0
 00324    88.7    -156.0   .0
 00340    91.3    -156.3   .0
 00356    93.8    -156.0   .0
 00373    96.7    -156.3   .0
 00392    99.8    -156.0   .0
 00410    102.7    -156.2   .0
 00428    105.7    -156.2   .0
 00444    108.4    -156.2   .0
 00459    110.9    -156.2   .0
 00475    113.6    -156.5   .0
 00492    116.5    -156.2   .0
 00509    119.5    -156.3   .0
 00527    122.6    -156.2   .0
 00542    125.2    -156.3   .0
 00558    127.8    -156.2   .0
 00574    130.6    -156.4   .0
 00592    133.7    -156.2   .0
 00609    136.8    -156.4   .0
 00627    139.9    -156.4   .0
 00642    142.6    -156.5   .0
 00657    145.2    -156.4   .0
 00672    147.9    -156.5   .0
 00690    151.1    -156.6   .0
 00705    153.8    -156.4   .0
 00722    156.9    -156.5   .0
 00740    160.1    -156.5   .0
 00756    163.0    -156.6   .0
 00774    166.2    -156.6   .0
 00789    168.9    -156.6   .0
 00804    171.8    -156.6   .0
 00820    174.6    -156.6   .0
 00835    177.4    -156.6   .0
 00853    180.6    -156.7   .0
 00868    183.5    -156.7   .0
 00886    186.8    -156.7   .0
 00902    189.7    -156.7   .0
 00917    192.6    -156.6   .0
 00935    196.0    -157.0   .0
 00953    199.4    -156.7   .0
 00970    202.4    -156.9   .0
 00984    205.2    -156.8   .0
 01000    208.2    -157.1   .0
 01016    211.2    -156.8   .0
 01031    214.1    -156.6   .0
 01046    217.0    -156.8   .0
 01064    220.3    -157.1   .0
 01080    223.4    -157.0   .0
 01096    226.4    -156.8   .0
 01113    229.8    -156.8   .0
 01129    232.8    -156.8   .0
 01144    235.7    -157.0   .0
 01159    238.7    -156.9   .0
 01176    242.0    -156.9   .0
 01192    245.1    -156.8   .0
 01209    248.4    -157.1   .0
 01225    251.4    -156.9   .0
 01240    254.4    -157.0   .0
 01257    257.8    -156.9   .0
 01273    260.9    -157.0   .0
 01291    264.3    -157.0   .0
 01306    267.3    -157.0   .0
 01322    270.4    -157.0   .0
 01339    273.7    -156.9   .0
 01355    276.9    -157.1   .0
 01372    280.4    -157.1   .0
 01387    283.3    -157.0   .0
 01405    286.9    -157.2   .0
 01423    290.3    -157.1   .0
 01438    293.4    -156.8   .0
 01453    296.4    -156.9   .0
 01469    299.5    -157.1   .0
 01485    302.6    -156.8   .0
 01502    306.2    -156.9   .0
 01521    309.8    -156.5   .0
 01539    313.3    -156.6   .0
 01554    316.4    -156.4   .0
 01571    319.9    -156.5   .0
 01590    323.6    -156.3   .0
 01605    326.6    -156.2   .0
 01620    329.7    -155.8   .0
 01636    332.9    -156.0   .0
 01655    336.6    -155.7   .0
 01671    339.8    -155.7   .0
 01689    343.5    -155.5   .0
 01705    346.6    -155.4   .0
 01720    349.8    -155.4   .0
 01736    352.8    -155.2   .0
 01751    355.9    -155.2   .0
 01767    359.1    -155.0   .0
 01785    362.7    -155.1   .0
 01803    366.4    -155.0   .0
 01821    370.0    -155.1   .0
 01839    373.6    -155.0   .0
 01854    376.7    -155.1   .0
 01870    379.8    -155.2   .0
 01887    383.3    -155.3   .0
 01902    386.3    -155.2   .0
 01920    389.9    -155.4   .0
 01939    393.6    -155.3   .0
 01954    396.6    -155.5   .0
 01972    400.3    -155.6   .0
 01990    403.9    -155.8   .0
 02009    407.6    -155.9   .0
 02026    411.1    -156.2   .0
 02044    414.6    -156.1   .0
 02061    418.0    -156.3   .0
 02079    421.6    -156.5   .0
 02094    424.7    -156.4   .0
 02112    428.3    -156.6   .0
 02127    431.2    -156.6   .0
 02143    434.3    -156.6   .0
 02158    437.4    -156.6   .0
 02173    440.3    -156.7   .0
 02188    443.4    -156.6   .0
 02204    446.5    -156.8   .0
 02222    450.0    -156.6   .0
 02238    453.3    -156.8   .0
 02254    456.3    -156.4   .0
 02271    459.8    -156.6   .0
 02289    463.4    -156.3   .0
 02305    466.4    -156.3   .0
 02322    469.8    -156.6   .0
 02337    472.8    -156.3   .0
 02355    476.3    -156.5   .0
 02374    479.9    -156.5   .0
 02390    483.0    -156.6   .0
 02405    486.0    -156.2   .0
 02421    489.1    -156.4   .0
 02436    492.1    -156.5   .0
 02454    495.5    -156.4   .0
 02470    498.5    -156.4   .0
 02486    501.8    -156.4   .0
 02505    505.3    -156.3   .0
 02520    508.1    -156.4   .0
 02538    511.6    -156.5   .0
 02554    514.6    -156.7   .0
 02571    518.0    -156.8   .0
 02587    521.0    -156.7   .0
 02604    524.2    -157.0   .0
 02620    527.2    -156.8   .0
 02637    530.4    -157.0   .0
 02655    533.9    -157.0   .0
 02670    536.7    -157.2   .0
 02686    539.7    -157.3   .0
 02703    542.9    -157.3   .0
 02718    545.7    -157.4   .0
 02734    548.6    -157.5   .0
 02752    551.9    -157.9   .0
 02768    554.8    -157.9   .0
 02782    557.5    -158.0   .0
 02797    560.3    -158.1   .0
 02815    563.5    -158.3   .0
 02833    566.8    -158.6   .0
 02851    570.0    -158.7   .0
 02866    572.7    -158.6   .0
 02881    575.4    -158.9   .0
 02896    578.1    -158.9   .0
 02911    580.9    -158.9   .0
 02927    583.7    -159.0   .0
 02945    587.0    -159.0   .0
 02960    589.7    -158.7   .0
 02978    592.7    -158.9   .0
 02996    596.0    -159.2   .0
 03011    598.6    -158.9   .0
 03027    601.3    -159.2   .0
 03042    604.1    -159.0   .0
 03057    606.6    -159.5   .0
 03074    609.5    -159.2   .0
 03090    612.2    -158.9   .0
 03107    615.2    -159.2   .0
 03124    618.1    -159.3   .0
 03140    620.8    -159.2   .0
 03156    623.5    -159.2   .0
 03174    626.4    -159.0   .0
 03191    629.3    -159.2   .0
 03208    632.1    -159.1   .0
 03223    634.7    -159.3   .0
 03240    637.4    -159.3   .0
 03255    640.0    -159.4   .0
 03270    642.4    -159.2   .0
 03289    645.4    -159.4   .0
 03304    647.9    -159.2   .0
 03319    650.3    -159.4   .0
 03335    652.8    -159.5   .0
 03352    655.6    -159.3   .0
 03370    658.4    -159.4   .0
 03387    661.1    -159.3   .0
 03405    663.9    -159.3   .0
 03421    666.3    -159.4   .0
 03436    668.6    -159.4   .0
 03453    671.2    -159.3   .0
 03471    674.0    -159.4   .0
 03487    676.3    -159.3   .0
 03503    678.8    -159.4   .0
 03522    681.6    -159.4   .0
 03537    683.8    -159.4   .0
 03555    686.5    -159.6   .0
 03570    688.7    -159.4   .0
 03587    691.1    -159.3   .0
 00005    691.7    -159.3    .0
 00018    693.1    -159.4    .0
 00036    695.1    -159.5    .0
 00052    696.9    -159.6    .0
 00070    699.2    -159.2    .0
 00085    701.0    -159.4    .0
 00100    703.0    -159.5    .0
 00118    700.7    -159.5    .0
 00134    698.6    -159.5    .0
 00149    696.5    -159.5    .0
 00164    694.5    -159.4    .0
 00180    692.3    -159.1    .0
 00197    689.9    -159.5    .0
 00215    687.4    -159.5    .0
 00231    685.2    -158.9    .0
 00247    683.0    -159.5    .0
 00265    680.4    -159.3    .0
 00280    678.2    -159.2    .0
 00297    675.6    -159.2    .0
 00315    673.0    -159.2    .0
 00333    670.5    -159.3    .0
 00348    668.2    -159.1    .0
 00366    665.6    -159.2    .0
 00383    662.9    -159.3    .0
 00401    660.2    -159.2    .0
 00418    657.5    -159.1    .0
 00436    654.8    -159.2    .0
 00452    652.4    -158.9    .0
 00468    649.8    -159.0    .0
 00487    646.9    -159.0    .0
 00502    644.6    -159.1    .0
 00516    642.2    -158.9    .0
 00534    639.4    -159.0    .0
 00552    636.5    -159.0    .0
 00567    634.0    -158.8    .0
 00584    631.3    -158.9    .0
 00602    628.4    -159.0    .0
 00619    625.5    -159.0    .0
 00634    623.0    -158.5    .0
 00652    620.0    -158.7    .0
 00670    617.0    -158.8    .0
 00686    614.4    -158.3    .0
 00702    611.7    -158.8    .0
 00720    608.6    -158.7    .0
 00736    605.9    -158.6    .0
 00753    603.0    -158.7    .0
 00769    600.3    -158.8    .0
 00787    597.2    -158.7    .0
 00805    594.0    -158.6    .0
 00820    591.3    -158.5    .0
 00838    588.2    -158.5    .0
 00853    585.6    -158.4    .0
 00869    582.8    -158.4    .0
 00887    579.6    -158.5    .0
 00902    576.9    -158.5    .0
 00919    573.7    -158.6    .0
 00935    571.0    -158.4    .0
 00950    568.2    -158.4    .0
 00965    565.5    -158.2    .0
 00983    562.3    -158.0    .0
 01001    559.0    -157.7    .0
 01018    555.9    -157.1    .0
 01035    552.8    -155.1    .0
 01052    549.7    -153.1    .0
 01069    546.5    -152.1    .0
 01085    543.6    -151.8    .0
 01103    540.3    -150.7    .0
 01118    537.4    -150.6    .0
 01135    534.1    -150.5    .0
 01150    531.4    -149.9    .0
 01168    528.0    -149.5    .0
 01187    524.5    -149.1    .0
 01203    521.5    -149.2    .0
 01218    518.5    -148.0    .0
 01236    515.2    -147.4    .0
 01255    511.6    -146.7    .0
 01270    508.7    -146.1    .0
 01288    505.3    -145.6    .0
 01305    502.0    -145.1    .0
 01321    498.9    -144.9    .0
 01339    495.5    -144.4    .0
 01356    492.3    -144.2    .0
 01371    489.3    -143.9    .0
 01388    485.9    -143.9    .0
 01406    482.5    -143.6    .0
 01423    479.2    -143.5    .0
 01441    475.8    -143.4    .0
 01456    472.8    -143.2    .0
 01472    469.7    -143.0    .0
 01490    466.2    -142.8    .0
 01507    462.8    -142.7    .0
 01522    459.8    -142.4    .0
 01537    456.8    -142.3    .0
 01555    453.3    -142.2    .0
 01571    450.3    -141.9    .0
 01586    447.3    -141.7    .0
 01603    443.8    -141.5    .0
 01621    440.4    -141.3    .0
 01636    437.4    -141.2    .0
 01651    434.4    -141.0    .0
 01669    430.9    -140.8    .0
 01687    427.3    -140.7    .0
 01705    423.8    -140.5    .0
 01719    420.8    -140.4    .0
 01734    417.9    -140.3    .0
 01750    414.8    -140.1    .0
 01765    411.8    -139.9    .0
 01783    408.2    -139.8    .0
 01800    404.7    -139.5    .0
 01815    401.8    -139.4    .0
 01833    398.2    -139.5    .0
 01851    394.6    -139.6    .0
 01867    391.4    -139.5    .0
 01885    387.9    -139.1    .0
 01900    384.8    -138.8    .0
 01918    381.3    -138.7    .0
 01935    377.8    -138.7    .0
 01951    374.7    -138.6    .0
 01966    371.7    -138.7    .0
 01982    368.6    -138.4    .0
 01997    365.6    -138.7    .0
 02015    361.9    -138.4    .0
 02031    358.7    -138.3    .0
 02049    355.1    -138.0    .0
 02065    352.0    -138.0    .0
 02083    348.4    -138.1    .0
 02100    345.0    -138.1    .0
 02116    341.9    -138.2    .0
 02131    338.8    -138.0    .0
 02147    335.8    -137.8    .0
 02162    332.7    -138.0    .0
 02179    329.3    -138.1    .0
 02194    326.3    -137.8    .0
 02211    323.0    -137.9    .0
 02230    319.4    -137.8    .0
 02245    316.4    -137.9    .0
 02263    312.7    -137.8    .0
 02279    309.6    -137.8    .0
 02297    306.2    -137.9    .0
 02315    302.6    -137.9    .0
 02330    299.6    -138.1    .0
 02346    296.5    -138.6    .0
 02364    293.0    -138.7    .0
 02379    290.0    -139.0    .0
 02395    287.0    -138.9    .0
 02410    284.0    -139.2    .0
 02426    281.0    -139.2    .0
 02441    278.0    -139.5    .0
 02456    275.1    -139.5    .0
 02474    271.6    -139.6    .0
 02492    268.2    -139.6    .0
 02507    265.3    -139.8    .0
 02522    262.4    -139.9    .0
 02537    259.5    -139.9    .0
 02552    256.7    -139.7    .0
 02567    253.7    -140.0    .0
 02582    250.8    -140.0    .0
 02597    248.0    -140.0    .0
 02615    244.7    -140.2    .0
 02630    241.8    -140.3    .0
 02646    238.8    -140.5    .0
 02661    236.0    -140.3    .0
 02678    232.7    -140.6    .0
 02697    229.3    -140.3    .0
 02714    225.9    -140.6    .0
 02733    222.6    -140.6    .0
 02748    219.7    -140.5    .0
 02766    216.4    -140.8    .0
 02781    213.7    -140.7    .0
 02797    210.7    -141.0    .0
 02815    207.4    -141.0    .0
 02830    204.7    -141.1    .0
 02847    201.6    -141.0    .0
 02863    198.7    -141.2    .0
 02881    195.5    -141.0    .0
 02896    192.8    -141.2    .0
 02913    189.6    -141.5    .0
 02929    186.8    -141.3    .0
 02945    184.0    -141.4    .0
 02962    180.9    -141.4    .0
 02978    178.1    -141.7    .0
 02996    175.0    -141.5    .0
 03012    172.3    -141.6    .0
 03029    169.2    -141.6    .0
 03045    166.5    -141.7    .0
 03060    163.8    -141.6    .0
 03076    161.1    -141.8    .0
 03094    157.9    -141.9    .0
 03109    155.4    -141.9    .0
 03125    152.8    -142.0    .0
 03140    150.2    -142.0    .0
 03156    147.5    -142.1    .0
 03171    145.1    -142.2    .0
 03189    142.1    -142.2    .0
 03206    139.2    -142.4    .0
 03221    136.7    -142.2    .0
 03240    133.7    -142.5    .0
 03258    130.7    -142.3    .0
 03276    127.7    -142.5    .0
 03295    124.8    -142.4    .0
 03312    122.0    -142.7    .0
 03330    119.2    -142.5    .0
 03348    116.4    -142.8    .0
 03366    113.5    -142.8    .0
 03384    110.7    -142.9    .0
 03402    108.0    -142.8    .0
 03420    105.2    -143.0    .0
 03437    102.6    -142.9    .0
 03452    100.3    -143.2    .0
 03470    97.6    -143.0    .0
 03488    94.9    -143.4    .0
 03507    92.2    -143.2    .0
 03525    89.5    -143.4    .0
 03543    86.9    -143.2    .0
 03561    84.3    -143.5    .0
 03579    81.7    -143.3    .0
 03597    79.1    -143.5    .0
 03615    76.6    -143.4    .0
 03632    74.3    -143.5    .0
 03649    71.9    -143.6    .0
 03666    69.6    -143.6    .0
 03683    67.3    -143.6    .0
 03699    65.2    -143.7    .0
 03714    63.2    -143.6    .0
 03730    61.1    -143.8    .0
 03745    59.0    -143.7    .0
 03764    56.7    -143.7    .0
 03782    54.3    -143.7    .0
 03797    52.4    -143.8    .0
 03815    50.1    -143.8    .0
 03832    48.1    -143.8    .0
