time temp susc csusc
 0             0             0             0             0            no
 00000    39.3    -155.3   .0
 00024    42.7    -155.2   .0
 00042    45.3    -155.3   .0
 00060    48.0    -155.3   .0
 00076    50.3    -155.4   .0
 00091    52.5    -155.5   .0
 00107    54.9    -155.5   .0
 00123    57.3    -155.4   .0
 00140    59.9    -155.6   .0
 00155    62.2    -155.6   .0
 00171    64.5    -155.7   .0
 00189    67.3    -155.6   .0
 00204    69.7    -155.8   .0
 00222    72.4    -155.7   .0
 00237    74.8    -155.8   .0
 00255    77.6    -155.8   .0
 00272    80.3    -155.9   .0
 00289    83.1    -155.8   .0
 00306    85.7    -155.9   .0
 00324    88.6    -155.8   .0
 00339    91.1    -156.0   .0
 00357    94.0    -155.9   .0
 00374    96.8    -155.9   .0
 00392    99.8    -155.9   .0
 00407    102.2    -156.2   .0
 00425    105.2    -155.9   .0
 00443    108.2    -156.1   .0
 00461    111.3    -155.9   .0
 00479    114.3    -156.1   .0
 00496    117.3    -156.1   .0
 00512    120.0    -156.1   .0
 00527    122.6    -156.2   .0
 00542    125.2    -156.2   .0
 00560    128.2    -156.1   .0
 00575    130.9    -156.2   .0
 00593    133.9    -156.1   .0
 00609    136.7    -156.4   .0
 00624    139.4    -156.1   .0
 00640    142.1    -156.6   .0
 00656    145.0    -156.4   .0
 00671    147.7    -156.2   .0
 00687    150.5    -156.4   .0
 00704    153.6    -156.4   .0
 00720    156.4    -156.5   .0
 00738    159.6    -156.4   .0
 00753    162.4    -156.5   .0
 00770    165.4    -156.7   .0
 00786    168.5    -156.7   .0
 00804    171.7    -156.6   .0
 00822    175.0    -156.5   .0
 00839    178.1    -156.5   .0
 00854    180.9    -156.6   .0
 00869    183.7    -156.5   .0
 00886    186.8    -156.4   .0
 00904    190.2    -156.7   .0
 00920    193.2    -156.6   .0
 00938    196.6    -156.6   .0
 00953    199.4    -156.6   .0
 00972    202.9    -156.6   .0
 00989    206.1    -156.7   .0
 01007    209.5    -156.5   .0
 01023    212.5    -156.8   .0
 01038    215.5    -156.7   .0
 01056    218.8    -156.8   .0
 01074    222.2    -156.9   .0
 01090    225.2    -156.8   .0
 01106    228.5    -156.9   .0
 01122    231.4    -157.0   .0
 01137    234.4    -156.9   .0
 01153    237.5    -156.8   .0
 01168    240.4    -157.0   .0
 01184    243.5    -156.9   .0
 01200    246.6    -156.8   .0
 01218    250.1    -156.8   .0
 01236    253.6    -157.0   .0
 01251    256.5    -157.0   .0
 01269    260.1    -156.8   .0
 01287    263.6    -157.0   .0
 01305    267.1    -156.8   .0
 01320    270.1    -156.9   .0
 01339    273.7    -156.8   .0
 01354    276.6    -157.1   .0
 01369    279.7    -156.7   .0
 01384    282.7    -157.0   .0
 01402    286.3    -156.8   .0
 01419    289.5    -156.9   .0
 01437    293.1    -156.5   .0
 01453    296.3    -156.9   .0
 01470    299.7    -156.9   .0
 01486    302.9    -156.9   .0
 01504    306.4    -156.7   .0
 01521    309.8    -156.8   .0
 01539    313.3    -156.6   .0
 01554    316.5    -156.4   .0
 01572    320.0    -156.4   .0
 01587    323.1    -156.3   .0
 01604    326.5    -156.3   .0
 01622    330.1    -155.9   .0
 01637    333.1    -155.7   .0
 01653    336.3    -155.2   .0
 01669    339.4    -155.4   .0
 01685    342.6    -155.1   .0
 01702    346.1    -155.3   .0
 01717    349.1    -154.7   .0
 01734    352.6    -154.5   .0
 01752    356.1    -154.6   .0
 01768    359.3    -154.3   .0
 01784    362.4    -153.9   .0
 01799    365.6    -153.9   .0
 01815    368.7    -153.7   .0
 01833    372.4    -153.7   .0
 01849    375.6    -153.0   .0
 01867    379.1    -153.3   .0
 01881    382.1    -153.2   .0
 01897    385.3    -153.0   .0
 01912    388.3    -153.1   .0
 01929    391.7    -153.0   .0
 01946    395.0    -152.6   .0
 01962    398.3    -153.0   .0
 01979    401.7    -152.7   .0
 01996    405.1    -153.0   .0
 02011    408.1    -153.2   .0
 02029    411.7    -153.1   .0
 02047    415.2    -153.5   .0
 02062    418.3    -153.4   .0
 02080    421.8    -153.4   .0
 02098    425.4    -153.2   .0
 02114    428.6    -154.0   .0
 02132    432.3    -154.1   .0
 02149    435.7    -154.4   .0
 02168    439.3    -154.3   .0
 02185    442.8    -154.6   .0
 02204    446.5    -154.5   .0
 02221    450.0    -155.0   .0
 02239    453.5    -154.2   .0
 02256    456.9    -155.0   .0
 02274    460.4    -154.8   .0
 02290    463.4    -155.0   .0
 02308    466.9    -154.8   .0
 02323    469.9    -154.6   .0
 02339    473.0    -154.9   .0
 02354    476.1    -154.6   .0
 02372    479.5    -154.8   .0
 02390    483.1    -154.8   .0
 02405    486.0    -154.9   .0
 02424    489.6    -154.5   .0
 02438    492.5    -154.5   .0
 02456    495.9    -155.0   .0
 02471    498.8    -154.5   .0
 02488    502.1    -154.2   .0
 02506    505.6    -153.5   .0
 02521    508.4    -152.9   .0
 02536    511.3    -152.4   .0
 02554    514.6    -152.0   .0
 02568    517.5    -152.5   .0
 02584    520.4    -153.6   .0
 02602    523.8    -153.6   .0
 02618    526.8    -154.4   .0
 02636    530.3    -154.6   .0
 02651    533.2    -154.9   .0
 02666    536.0    -154.7   .0
 02683    539.2    -155.7   .0
 02702    542.6    -155.8   .0
 02717    545.4    -155.6   .0
 02733    548.3    -156.3   .0
 02750    551.6    -156.5   .0
 02766    554.4    -156.6   .0
 02782    557.5    -156.9   .0
 02801    560.9    -157.1   .0
 02816    563.6    -157.8   .0
 02831    566.5    -157.5   .0
 02849    569.7    -158.1   .0
 02867    573.0    -158.2   .0
 02884    576.1    -158.5   .0
 02900    578.9    -158.7   .0
 02915    581.7    -158.7   .0
 02931    584.4    -158.9   .0
 02946    587.1    -158.5   .0
 02964    590.2    -159.1   .0
 02981    593.4    -158.8   .0
 02996    596.0    -158.6   .0
 03012    598.8    -159.0   .0
 03030    601.9    -159.1   .0
 03046    604.7    -159.1   .0
 03064    607.7    -159.1   .0
 03079    610.4    -158.9   .0
 03097    613.4    -159.1   .0
 03114    616.3    -159.4   .0
 03132    619.4    -159.1   .0
 03148    622.1    -158.7   .0
 03166    625.1    -159.5   .0
 03181    627.6    -158.9   .0
 03196    630.2    -159.2   .0
 03211    632.7    -159.5   .0
 03230    635.8    -159.4   .0
 03247    638.6    -159.1   .0
 03262    641.0    -159.5   .0
 03277    643.5    -159.1   .0
 03292    646.0    -159.1   .0
 03311    648.9    -159.8   .0
 03326    651.4    -159.3   .0
 03341    653.8    -159.2   .0
 03357    656.4    -159.4   .0
 03375    659.2    -159.6   .0
 03390    661.5    -159.5   .0
 03408    664.4    -159.4   .0
 03426    667.1    -159.5   .0
 03443    669.7    -159.3   .0
 03459    672.2    -160.3   .0
 03475    674.5    -159.3   .0
 03493    677.3    -160.0   .0
 03512    680.1    -159.3   .0
 03529    682.7    -160.1   .0
 03548    685.4    -159.5   .0
 03564    687.8    -159.6   .0
 03580    690.0    -159.5   .0
 00005    690.6    -159.4    .0
 00019    692.0    -160.1    .0
 00037    694.1    -159.4    .0
 00055    696.2    -159.7    .0
 00071    698.2    -159.6    .0
 00086    700.2    -159.4    .0
 00101    701.9    -159.4    .0
 00120    699.4    -159.5    .0
 00137    697.2    -159.4    .0
 00152    695.0    -159.5    .0
 00168    692.9    -159.3    .0
 00183    690.9    -159.6    .0
 00201    688.4    -159.5    .0
 00216    686.2    -159.4    .0
 00231    684.1    -159.5    .0
 00249    681.5    -159.5    .0
 00267    679.0    -159.4    .0
 00282    676.8    -159.5    .0
 00298    674.5    -159.4    .0
 00316    671.8    -159.4    .0
 00331    669.6    -159.2    .0
 00346    667.3    -159.2    .0
 00365    664.5    -159.1    .0
 00383    661.8    -159.3    .0
 00398    659.4    -159.2    .0
 00414    657.1    -159.5    .0
 00429    654.8    -159.3    .0
 00444    652.5    -159.5    .0
 00461    649.7    -159.0    .0
 00479    646.9    -159.1    .0
 00496    644.2    -158.7    .0
 00514    641.3    -159.2    .0
 00531    638.7    -159.1    .0
 00546    636.3    -159.0    .0
 00561    633.9    -158.9    .0
 00579    630.9    -159.4    .0
 00596    628.1    -158.9    .0
 00614    625.2    -159.4    .0
 00629    622.6    -158.8    .0
 00644    620.1    -158.9    .0
 00662    617.1    -159.0    .0
 00677    614.5    -158.8    .0
 00694    611.8    -158.9    .0
 00712    608.7    -158.8    .0
 00727    606.1    -158.9    .0
 00743    603.4    -158.8    .0
 00758    600.7    -158.7    .0
 00775    597.8    -158.9    .0
 00793    594.7    -158.7    .0
 00809    591.9    -158.6    .0
 00826    589.0    -158.8    .0
 00844    585.8    -158.4    .0
 00859    583.2    -158.5    .0
 00875    580.3    -158.6    .0
 00893    577.1    -158.2    .0
 00909    574.3    -157.8    .0
 00924    571.5    -156.8    .0
 00942    568.2    -155.7    .0
 00960    565.1    -154.8    .0
 00977    562.1    -152.2    .0
 00994    558.9    -150.2    .0
 01012    555.7    -148.2    .0
 01029    552.5    -146.5    .0
 01045    549.6    -143.5    .0
 01060    546.7    -138.9    .0
 01078    543.4    -133.1    .0
 01095    540.2    -127.3    .0
 01111    537.4    -121.8    .0
 01127    534.3    -116.8    .0
 01145    531.0    -115.0    .0
 01161    528.0    -114.4    .0
 01179    524.6    -114.0    .0
 01194    521.7    -113.3    .0
 01209    518.9    -112.5    .0
 01227    515.5    -111.7    .0
 01244    512.1    -111.3    .0
 01260    509.2    -110.7    .0
 01275    506.3    -110.3    .0
 01293    502.9    -110.0    .0
 01310    499.5    -109.8    .0
 01328    496.1    -109.9    .0
 01346    492.7    -109.8    .0
 01361    489.7    -109.7    .0
 01378    486.5    -109.8    .0
 01395    483.1    -109.8    .0
 01411    480.1    -109.7    .0
 01426    477.2    -109.8    .0
 01441    474.2    -109.6    .0
 01456    471.3    -109.6    .0
 01474    467.8    -109.6    .0
 01491    464.4    -109.6    .0
 01509    461.0    -109.3    .0
 01526    457.5    -109.4    .0
 01544    454.1    -109.2    .0
 01562    450.6    -109.5    .0
 01579    447.2    -109.5    .0
 01597    443.7    -109.5    .0
 01612    440.6    -109.2    .0
 01628    437.5    -109.4    .0
 01646    434.0    -109.8    .0
 01661    431.0    -109.2    .0
 01675    428.1    -109.2    .0
 01692    424.7    -109.3    .0
 01710    421.3    -109.3    .0
 01727    417.8    -108.8    .0
 01743    414.7    -109.4    .0
 01761    411.1    -109.3    .0
 01776    408.0    -109.2    .0
 01792    404.9    -109.2    .0
 01810    401.3    -108.9    .0
 01826    398.1    -109.1    .0
 01844    394.5    -109.1    .0
 01861    391.1    -109.3    .0
 01876    388.0    -109.1    .0
 01894    384.4    -109.1    .0
 01913    380.8    -108.7    .0
 01928    377.7    -109.7    .0
 01943    374.7    -109.2    .0
 01959    371.5    -109.1    .0
 01978    367.9    -109.1    .0
 01995    364.5    -109.2    .0
 02012    360.9    -108.8    .0
 02028    357.8    -109.1    .0
 02043    354.8    -109.3    .0
 02059    351.7    -109.1    .0
 02074    348.6    -108.8    .0
 02092    345.1    -109.3    .0
 02109    341.7    -109.2    .0
 02126    338.3    -109.3    .0
 02141    335.3    -109.1    .0
 02157    332.2    -109.3    .0
 02175    328.6    -109.2    .0
 02191    325.5    -109.4    .0
 02206    322.4    -109.3    .0
 02224    319.0    -109.3    .0
 02239    316.1    -109.3    .0
 02254    313.0    -109.4    .0
 02270    309.8    -109.6    .0
 02288    306.3    -109.8    .0
 02303    303.4    -110.2    .0
 02320    300.1    -110.4    .0
 02335    297.2    -110.4    .0
 02350    294.2    -110.8    .0
 02365    291.2    -110.9    .0
 02380    288.3    -111.0    .0
 02398    284.8    -111.1    .0
 02414    281.8    -111.3    .0
 02432    278.3    -111.4    .0
 02447    275.2    -111.5    .0
 02465    271.9    -111.9    .0
 02480    268.9    -111.9    .0
 02496    265.8    -111.6    .0
 02514    262.5    -112.2    .0
 02529    259.5    -111.9    .0
 02544    256.7    -112.4    .0
 02562    253.3    -112.5    .0
 02579    250.0    -112.7    .0
 02594    247.2    -112.7    .0
 02611    243.9    -112.8    .0
 02630    240.4    -112.9    .0
 02644    237.6    -113.1    .0
 02660    234.7    -113.1    .0
 02676    231.8    -113.4    .0
 02693    228.5    -113.5    .0
 02708    225.6    -113.5    .0
 02726    222.5    -113.6    .0
 02744    219.1    -113.7    .0
 02759    216.3    -113.8    .0
 02777    213.0    -113.9    .0
 02792    210.2    -114.2    .0
 02808    207.3    -113.9    .0
 02824    204.3    -114.3    .0
 02843    201.0    -114.0    .0
 02858    198.2    -114.5    .0
 02875    195.0    -114.4    .0
 02891    192.2    -114.6    .0
 02908    189.1    -114.7    .0
 02923    186.5    -114.8    .0
 02941    183.3    -114.7    .0
 02957    180.5    -114.9    .0
 02975    177.2    -114.9    .0
 02991    174.5    -115.4    .0
 03009    171.4    -115.0    .0
 03025    168.6    -115.2    .0
 03042    165.7    -115.4    .0
 03057    163.0    -115.2    .0
 03073    160.3    -115.4    .0
 03091    157.2    -115.7    .0
 03106    154.6    -115.7    .0
 03125    151.5    -115.7    .0
 03140    149.0    -115.9    .0
 03157    146.0    -115.9    .0
 03172    143.6    -116.0    .0
 03190    140.5    -116.0    .0
 03208    137.6    -116.1    .0
 03225    134.9    -116.3    .0
 03240    132.4    -116.2    .0
 03255    129.9    -116.5    .0
 03273    127.0    -116.5    .0
 03290    124.3    -116.5    .0
 03308    121.4    -116.7    .0
 03324    118.9    -116.8    .0
 03342    116.0    -116.7    .0
 03357    113.7    -117.1    .0
 03376    110.8    -117.1    .0
 03394    108.0    -117.2    .0
 03412    105.2    -117.3    .0
 03427    102.9    -117.6    .0
 03445    100.2    -117.7    .0
 03462    97.7    -117.8    .0
 03478    95.3    -118.0    .0
 03496    92.7    -117.9    .0
 03512    90.2    -118.2    .0
 03530    87.7    -118.2    .0
 03545    85.5    -118.3    .0
 03563    83.0    -118.4    .0
 03578    80.7    -118.4    .0
 03596    78.2    -118.4    .0
 03611    76.1    -118.7    .0
 03627    74.0    -118.5    .0
 03642    71.8    -118.7    .0
 03660    69.4    -118.6    .0
 03675    67.3    -118.7    .0
 03693    64.9    -118.6    .0
 03710    62.7    -118.8    .0
 03728    60.3    -118.8    .0
 03742    58.4    -118.9    .0
 03760    56.1    -118.8    .0
 03778    53.9    -119.0    .0
 03796    51.6    -118.9    .0
 03811    49.7    -119.0    .0
