time temp susc csusc
 0             0             0             0             0            no
 00000    39.3    -156.2   .0
 00020    42.1    -156.0   .0
 00038    44.8    -156.2   .0
 00056    47.4    -156.1   .0
 00074    50.1    -156.3   .0
 00092    52.6    -156.3   .0
 00109    55.2    -156.3   .0
 00125    57.6    -156.3   .0
 00142    60.1    -156.5   .0
 00159    62.8    -156.3   .0
 00177    65.5    -156.4   .0
 00195    68.3    -156.4   .0
 00210    70.6    -156.6   .0
 00228    73.5    -156.3   .0
 00246    76.3    -156.7   .0
 00265    79.2    -156.4   .0
 00283    82.1    -156.8   .0
 00300    84.8    -156.6   .0
 00318    87.7    -156.7   .0
 00333    90.1    -156.6   .0
 00349    92.7    -156.7   .0
 00364    95.1    -156.6   .0
 00381    97.9    -156.8   .0
 00399    100.9    -156.6   .0
 00417    103.9    -156.8   .0
 00436    107.0    -156.6   .0
 00454    110.1    -156.9   .0
 00472    113.2    -156.8   .0
 00490    116.2    -156.9   .0
 00508    119.3    -156.8   .0
 00523    121.9    -157.0   .0
 00541    124.8    -156.8   .0
 00558    127.9    -157.1   .0
 00576    131.0    -156.8   .0
 00591    133.6    -157.0   .0
 00610    136.9    -157.0   .0
 00625    139.6    -157.0   .0
 00641    142.4    -157.1   .0
 00659    145.6    -157.0   .0
 00675    148.3    -157.0   .0
 00690    151.0    -157.1   .0
 00705    153.8    -157.0   .0
 00720    156.5    -157.2   .0
 00737    159.6    -157.0   .0
 00754    162.5    -157.0   .0
 00769    165.2    -157.2   .0
 00783    167.9    -157.0   .0
 00801    171.1    -157.3   .0
 00819    174.4    -157.1   .0
 00837    177.7    -157.3   .0
 00856    181.2    -157.1   .0
 00874    184.5    -157.2   .0
 00892    187.9    -157.2   .0
 00908    190.9    -157.3   .0
 00924    193.9    -157.2   .0
 00940    196.9    -157.5   .0
 00958    200.2    -157.2   .0
 00976    203.6    -157.4   .0
 00994    207.1    -157.3   .0
 01012    210.4    -157.5   .0
 01030    213.9    -157.3   .0
 01048    217.3    -157.4   .0
 01066    220.8    -157.4   .0
 01084    224.2    -157.4   .0
 01103    227.8    -157.3   .0
 01119    230.9    -157.4   .0
 01137    234.3    -157.6   .0
 01153    237.4    -157.3   .0
 01168    240.4    -157.4   .0
 01183    243.4    -157.7   .0
 01202    246.9    -157.3   .0
 01219    250.3    -157.2   .0
 01238    253.9    -157.5   .0
 01255    257.4    -157.6   .0
 01274    260.9    -157.5   .0
 01289    264.0    -157.7   .0
 01306    267.3    -157.4   .0
 01322    270.5    -157.5   .0
 01341    274.1    -157.4   .0
 01358    277.5    -157.3   .0
 01376    281.0    -157.2   .0
 01392    284.2    -157.4   .0
 01410    287.8    -157.6   .0
 01425    290.7    -157.3   .0
 01443    294.3    -157.5   .0
 01461    297.9    -157.5   .0
 01476    300.9    -157.4   .0
 01491    304.0    -157.4   .0
 01509    307.4    -157.4   .0
 01526    310.9    -157.4   .0
 01542    314.1    -157.6   .0
 01557    317.1    -157.1   .0
 01572    320.1    -157.2   .0
 01590    323.7    -157.1   .0
 01605    326.7    -157.2   .0
 01621    329.8    -157.0   .0
 01639    333.4    -156.5   .0
 01657    337.1    -156.2   .0
 01675    340.7    -156.1   .0
 01693    344.3    -155.5   .0
 01710    347.8    -155.9   .0
 01728    351.4    -155.5   .0
 01746    354.9    -155.5   .0
 01764    358.6    -155.4   .0
 01780    361.8    -155.4   .0
 01795    364.8    -155.4   .0
 01811    367.9    -155.4   .0
 01826    370.9    -155.4   .0
 01842    374.2    -155.4   .0
 01859    377.7    -155.3   .0
 01874    380.7    -155.5   .0
 01893    384.4    -155.4   .0
 01908    387.5    -155.5   .0
 01923    390.5    -155.5   .0
 01942    394.2    -155.6   .0
 01957    397.3    -156.0   .0
 01972    400.3    -155.8   .0
 01989    403.8    -156.0   .0
 02007    407.4    -156.0   .0
 02023    410.4    -156.3   .0
 02038    413.4    -156.7   .0
 02053    416.4    -156.6   .0
 02068    419.6    -157.0   .0
 02086    423.0    -156.9   .0
 02102    426.2    -157.1   .0
 02117    429.2    -156.8   .0
 02135    432.9    -157.3   .0
 02154    436.6    -157.3   .0
 02172    440.2    -157.3   .0
 02188    443.3    -157.4   .0
 02203    446.3    -157.5   .0
 02220    449.7    -157.7   .0
 02235    452.7    -157.6   .0
 02253    456.3    -157.9   .0
 02272    459.9    -157.2   .0
 02286    462.8    -157.4   .0
 02302    465.8    -157.5   .0
 02320    469.3    -157.6   .0
 02336    472.5    -157.5   .0
 02353    475.9    -157.6   .0
 02369    478.9    -157.5   .0
 02385    482.0    -157.5   .0
 02403    485.6    -157.4   .0
 02419    488.6    -157.5   .0
 02434    491.6    -157.8   .0
 02449    494.6    -157.8   .0
 02465    497.5    -157.9   .0
 02480    500.5    -157.8   .0
 02495    503.4    -157.7   .0
 02511    506.4    -157.5   .0
 02526    509.4    -157.8   .0
 02541    512.2    -157.5   .0
 02556    515.2    -157.7   .0
 02574    518.6    -157.6   .0
 02590    521.5    -157.8   .0
 02607    524.9    -157.8   .0
 02623    527.8    -157.7   .0
 02638    530.7    -157.8   .0
 02654    533.6    -158.0   .0
 02669    536.4    -158.0   .0
 02684    539.3    -158.1   .0
 02699    542.1    -158.0   .0
 02714    544.9    -158.0   .0
 02729    547.7    -158.2   .0
 02744    550.4    -158.1   .0
 02759    553.2    -158.7   .0
 02777    556.6    -158.3   .0
 02793    559.5    -158.6   .0
 02811    562.8    -158.4   .0
 02829    566.1    -158.7   .0
 02848    569.5    -158.8   .0
 02863    572.3    -159.0   .0
 02881    575.5    -159.1   .0
 02896    578.2    -159.1   .0
 02914    581.5    -158.6   .0
 02932    584.7    -158.9   .0
 02950    587.9    -158.7   .0
 02968    591.1    -159.6   .0
 02983    593.7    -159.4   .0
 02999    596.4    -159.3   .0
 03013    599.0    -159.1   .0
 03032    602.3    -159.5   .0
 03049    605.2    -159.2   .0
 03064    607.8    -159.0   .0
 03081    610.7    -159.3   .0
 03098    613.7    -159.4   .0
 03116    616.7    -159.3   .0
 03131    619.3    -159.6   .0
 03146    621.8    -159.2   .0
 03164    624.8    -159.5   .0
 03182    627.8    -159.4   .0
 03198    630.5    -159.2   .0
 03216    633.6    -159.8   .0
 03232    636.1    -159.3   .0
 03250    639.1    -159.7   .0
 03268    642.1    -159.2   .0
 03286    645.0    -159.6   .0
 03304    647.9    -159.5   .0
 03320    650.4    -159.5   .0
 03337    653.2    -159.2   .0
 03352    655.6    -159.4   .0
 03368    658.0    -159.7   .0
 03385    660.7    -159.2   .0
 03403    663.5    -160.0   .0
 03420    666.2    -159.6   .0
 03435    668.5    -160.0   .0
 03451    670.9    -159.4   .0
 03467    673.3    -159.9   .0
 03485    676.0    -159.7   .0
 03500    678.3    -159.6   .0
 03515    680.5    -159.8   .0
 03533    683.2    -159.7   .0
 03550    685.7    -159.2   .0
 03567    688.1    -159.5   .0
 03584    690.7    -159.6   .0
 00005    691.2    -160.0    .0
 00018    692.7    -159.9    .0
 00036    694.7    -159.9    .0
 00053    696.6    -159.4    .0
 00068    698.5    -159.9    .0
 00087    700.9    -159.7    .0
 00102    702.4    -159.7    .0
 00119    700.1    -159.8    .0
 00138    697.6    -159.8    .0
 00155    695.2    -160.3    .0
 00171    693.1    -159.6    .0
 00187    690.8    -160.2    .0
 00206    688.3    -159.9    .0
 00221    686.2    -159.4    .0
 00236    684.0    -159.6    .0
 00254    681.5    -159.7    .0
 00272    678.9    -159.7    .0
 00287    676.7    -159.6    .0
 00302    674.5    -159.3    .0
 00320    671.9    -159.6    .0
 00338    669.3    -159.5    .0
 00353    667.0    -159.6    .0
 00368    664.7    -159.6    .0
 00384    662.3    -159.4    .0
 00402    659.6    -159.5    .0
 00420    656.8    -159.5    .0
 00437    654.1    -159.6    .0
 00453    651.7    -159.4    .0
 00471    648.9    -159.3    .0
 00489    646.0    -159.7    .0
 00507    643.3    -159.5    .0
 00524    640.4    -159.5    .0
 00542    637.6    -159.3    .0
 00560    634.7    -159.3    .0
 00575    632.2    -159.4    .0
 00593    629.3    -158.9    .0
 00611    626.4    -159.2    .0
 00629    623.4    -159.5    .0
 00644    620.8    -158.9    .0
 00660    618.2    -159.3    .0
 00678    615.2    -159.3    .0
 00693    612.7    -158.9    .0
 00711    609.6    -159.2    .0
 00730    606.4    -159.2    .0
 00745    603.8    -159.0    .0
 00761    601.2    -159.0    .0
 00778    598.1    -159.0    .0
 00795    595.2    -159.0    .0
 00810    592.6    -159.1    .0
 00825    590.0    -158.8    .0
 00839    587.4    -158.4    .0
 00858    584.2    -158.6    .0
 00876    581.0    -158.7    .0
 00893    578.0    -158.7    .0
 00911    574.8    -158.6    .0
 00926    572.1    -158.1    .0
 00942    569.1    -157.7    .0
 00960    566.0    -156.8    .0
 00977    562.8    -155.7    .0
 00995    559.6    -153.9    .0
 01012    556.5    -151.7    .0
 01029    553.3    -149.4    .0
 01046    550.2    -147.3    .0
 01064    546.9    -146.0    .0
 01082    543.6    -145.1    .0
 01099    540.4    -144.1    .0
 01114    537.6    -143.2    .0
 01129    534.7    -142.5    .0
 01148    531.3    -141.6    .0
 01166    527.9    -141.1    .0
 01182    524.8    -140.8    .0
 01200    521.5    -140.0    .0
 01217    518.2    -138.7    .0
 01232    515.3    -137.9    .0
 01251    511.8    -137.8    .0
 01266    509.0    -136.6    .0
 01281    506.0    -136.1    .0
 01300    502.5    -135.7    .0
 01316    499.3    -135.1    .0
 01333    496.0    -134.6    .0
 01351    492.6    -134.1    .0
 01368    489.3    -134.1    .0
 01384    486.3    -133.5    .0
 01402    482.7    -133.4    .0
 01420    479.2    -133.0    .0
 01437    475.8    -133.0    .0
 01455    472.3    -132.9    .0
 01472    469.0    -132.7    .0
 01491    465.5    -132.4    .0
 01506    462.4    -132.4    .0
 01522    459.4    -132.1    .0
 01536    456.4    -132.2    .0
 01552    453.4    -131.9    .0
 01567    450.3    -131.8    .0
 01586    446.7    -131.5    .0
 01601    443.6    -131.7    .0
 01617    440.5    -131.2    .0
 01636    436.8    -130.9    .0
 01651    433.8    -130.8    .0
 01667    430.7    -131.1    .0
 01685    427.1    -131.3    .0
 01701    424.0    -130.8    .0
 01719    420.4    -130.7    .0
 01734    417.3    -130.8    .0
 01749    414.3    -130.7    .0
 01767    410.8    -130.3    .0
 01784    407.4    -130.6    .0
 01799    404.3    -130.4    .0
 01814    401.4    -130.4    .0
 01833    397.7    -130.3    .0
 01848    394.6    -130.0    .0
 01863    391.6    -130.4    .0
 01878    388.6    -130.1    .0
 01896    385.0    -130.0    .0
 01914    381.5    -129.9    .0
 01930    378.3    -129.9    .0
 01947    374.9    -129.5    .0
 01965    371.3    -129.9    .0
 01980    368.3    -130.0    .0
 01996    365.1    -129.8    .0
 02014    361.5    -129.9    .0
 02029    358.6    -129.5    .0
 02044    355.5    -129.7    .0
 02062    351.9    -129.5    .0
 02078    348.8    -129.7    .0
 02097    345.1    -129.5    .0
 02112    342.0    -129.6    .0
 02130    338.5    -129.7    .0
 02145    335.5    -129.4    .0
 02161    332.4    -129.5    .0
 02179    328.7    -129.5    .0
 02194    325.8    -129.4    .0
 02210    322.7    -129.5    .0
 02225    319.6    -129.3    .0
 02242    316.3    -129.3    .0
 02260    312.7    -129.3    .0
 02278    309.3    -129.4    .0
 02293    306.3    -129.3    .0
 02308    303.3    -129.5    .0
 02324    300.2    -129.3    .0
 02341    296.8    -129.6    .0
 02357    293.8    -130.0    .0
 02372    290.8    -130.3    .0
 02387    287.8    -130.1    .0
 02405    284.3    -130.3    .0
 02423    280.8    -130.3    .0
 02438    277.9    -130.6    .0
 02456    274.4    -130.4    .0
 02471    271.5    -130.7    .0
 02489    268.1    -130.6    .0
 02506    264.9    -131.1    .0
 02524    261.4    -130.9    .0
 02541    258.0    -131.0    .0
 02557    255.1    -131.2    .0
 02573    252.1    -131.1    .0
 02591    248.6    -131.4    .0
 02607    245.6    -131.3    .0
 02622    242.7    -131.3    .0
 02640    239.4    -131.7    .0
 02655    236.5    -131.5    .0
 02672    233.4    -131.6    .0
 02690    230.0    -131.8    .0
 02705    227.2    -131.8    .0
 02722    224.0    -131.8    .0
 02737    221.1    -131.9    .0
 02755    217.9    -132.1    .0
 02771    215.0    -131.9    .0
 02787    211.9    -132.2    .0
 02806    208.6    -132.3    .0
 02823    205.4    -132.6    .0
 02841    202.2    -132.2    .0
 02857    199.3    -132.3    .0
 02874    196.1    -132.3    .0
 02891    193.0    -132.3    .0
 02908    190.0    -132.4    .0
 02926    186.8    -132.5    .0
 02944    183.7    -132.6    .0
 02962    180.5    -132.6    .0
 02977    177.8    -132.7    .0
 02992    175.1    -132.8    .0
 03008    172.4    -132.9    .0
 03025    169.5    -133.0    .0
 03040    166.8    -132.8    .0
 03056    164.1    -132.9    .0
 03074    161.0    -133.0    .0
 03090    158.2    -133.0    .0
 03105    155.7    -133.2    .0
 03120    153.1    -133.0    .0
 03136    150.3    -133.2    .0
 03155    147.2    -133.1    .0
 03173    144.2    -133.3    .0
 03191    141.2    -133.1    .0
 03206    138.7    -133.4    .0
 03225    135.7    -133.3    .0
 03241    132.9    -133.5    .0
 03260    129.9    -133.4    .0
 03275    127.5    -133.5    .0
 03292    124.7    -133.5    .0
 03307    122.3    -133.8    .0
 03323    119.8    -133.6    .0
 03340    117.1    -133.7    .0
 03358    114.3    -133.7    .0
 03374    111.8    -133.7    .0
 03389    109.5    -133.9    .0
 03404    107.1    -133.8    .0
 03422    104.4    -134.0    .0
 03437    102.1    -133.8    .0
 03453    99.7    -134.2    .0
 03471    97.0    -134.0    .0
 03489    94.4    -134.2    .0
 03507    91.7    -134.2    .0
 03522    89.5    -134.2    .0
 03539    87.0    -134.4    .0
 03555    84.7    -134.5    .0
 03573    82.2    -134.4    .0
 03588    80.0    -134.6    .0
 03606    77.5    -134.5    .0
 03623    75.0    -134.8    .0
 03642    72.5    -134.6    .0
 03660    70.0    -134.8    .0
 03678    67.5    -134.8    .0
 03693    65.5    -135.0    .0
 03711    63.1    -134.8    .0
 03729    60.8    -135.0    .0
 03746    58.5    -134.9    .0
 03762    56.4    -135.1    .0
 03780    54.2    -135.1    .0
 03795    52.3    -135.2    .0
 03811    50.3    -135.1    .0
 03825    48.5    -135.3    .0
